fnirSoft:	Exported Text File
Version:	4.2
ExportDate:	12/18/2023 11:29:16 AM
VariableInfo
Name:	oxygraph29.oxy.Time1
Size:	1838 x 1
Type:	Numeric
Content:	Time
Date:	12/18/2023 11:29:05 AM
Notes:	Time saved by Oxygraph from file C:\Users\Anette Johansson\Documents\COBI Studio Data\friska kontroller\2034K\ANETTE_2034K_1_12130816.oxy
Labels:	OXY	TIME
VariableData
Time

60.779
61.291
61.801
62.311
62.821
63.331
63.841
64.351
64.861
65.371
65.88
66.391
66.901
67.411
67.921
68.431
68.941
69.451
69.961
70.471
70.981
71.491
72.001
72.512
73.022
73.532
74.042
74.552
75.061
75.571
76.081
76.591
77.101
77.611
78.122
78.632
79.142
79.652
80.162
80.672
81.182
81.692
82.202
82.712
83.222
83.732
84.242
84.752
85.262
85.772
86.285
86.795
87.305
87.815
88.325
88.835
89.345
89.855
90.366
90.876
91.386
91.896
92.406
92.916
93.426
93.936
94.446
94.956
95.466
95.976
96.49
96.999
97.509
98.019
98.529
99.039
99.55
100.06
100.57
101.08
101.59
102.1
102.61
103.12
103.63
104.14
104.65
105.16
105.671
106.181
106.691
107.201
107.711
108.221
108.731
109.241
109.751
110.261
110.771
111.281
111.794
112.304
112.814
113.324
113.834
114.344
114.854
115.364
115.874
116.384
116.895
117.405
117.914
118.425
118.934
119.444
119.954
120.464
120.974
121.484
121.994
122.504
123.014
123.524
124.034
124.544
125.054
125.564
126.074
126.584
127.094
127.609
128.119
128.629
129.139
129.65
130.16
130.67
131.18
131.69
132.2
132.71
133.22
133.73
134.24
134.75
135.26
135.771
136.281
136.791
137.301
137.811
138.321
138.831
139.341
139.851
140.36
140.87
141.38
141.89
142.4
142.91
143.42
143.93
144.441
144.951
145.461
145.971
146.481
146.991
147.504
148.014
148.524
149.034
149.544
150.054
150.564
151.074
151.584
152.094
152.604
153.115
153.625
154.135
154.645
155.155
155.665
156.175
156.686
157.196
157.706
158.219
158.729
159.239
159.749
160.259
160.769
161.279
161.789
162.299
162.809
163.319
163.829
164.339
164.849
165.359
165.869
166.379
166.889
167.399
167.909
168.419
168.929
169.439
169.949
170.459
170.969
171.48
171.99
172.5
173.01
173.52
174.03
174.54
175.05
175.56
176.07
176.58
177.09
177.6
178.11
178.624
179.134
179.644
180.154
180.664
181.174
181.684
182.194
182.704
183.214
183.724
184.234
184.744
185.254
185.764
186.274
186.784
187.294
187.804
188.314
188.82
189.33
189.844
190.354
190.864
191.374
191.884
192.394
192.904
193.414
193.924
194.434
194.944
195.454
195.964
196.474
196.984
197.494
198.004
198.514
199.024
199.534
200.044
200.554
201.064
201.575
202.085
202.595
203.105
203.615
204.125
204.634
205.145
205.655
206.164
206.674
207.184
207.695
208.205
208.715
209.223
209.733
210.243
210.754
211.264
211.774
212.284
212.794
213.304
213.814
214.324
214.834
215.344
215.854
216.365
216.875
217.385
217.895
218.405
218.915
219.425
219.938
220.448
220.958
221.468
221.978
222.489
222.999
223.509
224.019
224.529
225.039
225.549
226.059
226.569
227.079
227.588
228.098
228.608
229.118
229.628
230.138
230.648
231.158
231.669
232.179
232.689
233.199
233.709
234.219
234.729
235.239
235.749
236.259
236.769
237.279
237.789
238.299
238.809
239.319
239.833
240.343
240.853
241.363
241.873
242.383
242.893
243.404
243.914
244.424
244.934
245.444
245.954
246.465
246.975
247.485
247.995
248.505
249.015
249.524
250.034
250.547
251.057
251.567
252.077
252.588
253.098
253.608
254.118
254.628
255.138
255.648
256.158
256.668
257.178
257.688
258.198
258.709
259.219
259.729
260.239
260.749
261.259
261.769
262.279
262.789
263.299
263.809
264.319
264.829
265.339
265.849
266.359
266.869
267.38
267.89
268.4
268.91
269.42
269.93
270.44
270.952
271.461
271.971
272.481
272.991
273.501
274.011
274.521
275.031
275.541
276.051
276.562
277.072
277.582
278.092
278.602
279.112
279.622
280.132
280.642
281.157
281.667
282.177
282.687
283.197
283.707
284.217
284.727
285.237
285.748
286.258
286.768
287.278
287.788
288.298
288.808
289.318
289.828
290.338
290.848
291.359
291.868
292.378
292.888
293.398
293.908
294.418
294.928
295.438
295.948
296.458
296.968
297.479
297.989
298.499
299.009
299.519
300.029
300.539
301.049
301.561
302.071
302.581
303.091
303.601
304.111
304.621
305.131
305.641
306.151
306.663
307.173
307.683
308.193
308.703
309.213
309.723
310.233
310.743
311.253
311.763
312.277
312.788
313.298
313.808
314.318
314.827
315.337
315.847
316.357
316.867
317.377
317.887
318.397
318.907
319.417
319.927
320.437
320.947
321.457
321.967
322.477
322.987
323.497
324.007
324.517
325.027
325.537
326.047
326.557
327.067
327.577
328.087
328.598
329.108
329.618
330.128
330.638
331.148
331.658
332.168
332.681
333.191
333.701
334.211
334.721
335.23
335.74
336.251
336.76
337.27
337.78
338.29
338.8
339.31
339.82
340.33
340.84
341.35
341.86
342.37
342.88
343.386
343.896
344.406
344.916
345.426
345.936
346.446
346.956
347.466
347.976
348.487
348.997
349.507
350.017
350.527
351.037
351.547
352.057
352.567
353.077
353.587
354.097
354.607
355.117
355.627
356.137
356.647
357.157
357.667
358.176
358.686
359.196
359.706
360.216
360.727
361.237
361.747
362.257
362.767
363.277
363.79
364.3
364.81
365.32
365.83
366.34
366.85
367.36
367.87
368.38
368.89
369.401
369.911
370.421
370.931
371.441
371.951
372.461
372.971
373.481
373.996
374.506
375.016
375.526
376.036
376.546
377.056
377.566
378.076
378.586
379.095
379.605
380.115
380.625
381.135
381.645
382.155
382.665
383.175
383.685
384.195
384.706
385.216
385.726
386.236
386.746
387.256
387.766
388.276
388.786
389.296
389.806
390.316
390.827
391.337
391.847
392.357
392.867
393.377
393.887
394.394
394.904
395.414
395.924
396.434
396.944
397.454
397.964
398.474
398.984
399.495
400.005
400.514
401.025
401.534
402.044
402.554
403.064
403.574
404.084
404.594
405.105
405.615
406.125
406.635
407.145
407.655
408.165
408.676
409.186
409.696
410.206
410.716
411.226
411.736
412.246
412.756
413.266
413.776
414.286
414.796
415.306
415.816
416.326
416.836
417.346
417.856
418.366
418.876
419.386
419.896
420.406
420.916
421.426
421.936
422.446
422.955
423.466
423.976
424.486
424.996
425.502
426.012
426.522
427.032
427.542
428.052
428.562
429.072
429.582
430.092
430.602
431.112
431.622
432.132
432.643
433.153
433.663
434.173
434.683
435.193
435.703
436.215
436.725
437.235
437.745
438.255
438.765
439.275
439.785
440.295
440.805
441.315
441.826
442.336
442.846
443.356
443.865
444.376
444.886
445.395
445.905
446.415
446.925
447.436
447.946
448.456
448.966
449.476
449.986
450.496
451.006
451.516
452.026
452.536
453.046
453.556
454.066
454.576
455.086
455.596
456.106
456.619
457.129
457.639
458.149
458.659
459.169
459.68
460.19
460.7
461.21
461.72
462.23
462.74
463.25
463.76
464.27
464.78
465.29
465.801
466.311
466.82
467.332
467.842
468.352
468.862
469.372
469.882
470.392
470.902
471.413
471.923
472.433
472.943
473.453
473.963
474.473
474.983
475.493
476.003
476.513
477.023
477.533
478.043
478.553
479.063
479.573
480.083
480.593
481.103
481.613
482.123
482.633
483.143
483.654
484.164
484.674
485.184
485.694
486.204
486.714
487.223
487.728
488.238
488.748
489.258
489.769
490.279
490.789
491.299
491.809
492.319
492.829
493.339
493.849
494.359
494.869
495.38
495.89
496.4
496.91
497.42
497.932
498.442
498.952
499.462
499.972
500.482
500.992
501.502
502.012
502.522
503.032
503.542
504.052
504.562
505.072
505.582
506.092
506.602
507.112
507.622
508.132
508.642
509.152
509.661
510.171
510.682
511.192
511.702
512.212
512.722
513.232
513.742
514.252
514.762
515.272
515.782
516.292
516.803
517.313
517.823
518.333
518.842
519.343
519.853
520.363
520.873
521.383
521.893
522.403
522.913
523.423
523.933
524.443
524.953
525.464
525.974
526.484
526.994
527.504
528.014
528.524
529.032
529.542
530.052
530.561
531.072
531.578
532.088
532.598
533.108
533.618
534.128
534.639
535.149
535.659
536.169
536.679
537.189
537.699
538.209
538.719
539.229
539.739
540.249
540.759
541.269
541.779
542.289
542.799
543.309
543.819
544.329
544.839
545.349
545.859
546.369
546.879
547.389
547.899
548.409
548.919
549.43
549.938
550.448
550.958
551.468
551.978
552.489
552.998
553.508
554.018
554.528
555.038
555.548
556.058
556.568
557.078
557.588
558.098
558.609
559.119
559.629
560.141
560.651
561.161
561.671
562.181
562.691
563.201
563.711
564.221
564.732
565.242
565.752
566.262
566.772
567.282
567.792
568.302
568.812
569.322
569.832
570.342
570.85
571.36
571.87
572.38
572.89
573.398
573.908
574.419
574.928
575.438
575.948
576.458
576.968
577.478
577.988
578.498
579.008
579.518
580.028
580.538
581.047
581.557
582.067
582.578
583.088
583.598
584.108
584.618
585.128
585.638
586.148
586.658
587.168
587.678
588.188
588.698
589.208
589.718
590.228
590.738
591.248
591.761
592.271
592.781
593.291
593.801
594.311
594.821
595.331
595.841
596.351
596.86
597.371
597.881
598.391
598.901
599.411
599.921
600.431
600.941
601.451
601.961
602.471
602.981
603.491
604.001
604.511
605.021
605.531
606.041
606.552
607.062
607.572
608.082
608.592
609.102
609.612
610.122
610.632
611.142
611.652
612.167
612.678
613.188
613.698
614.208
614.718
615.228
615.738
616.248
616.758
617.268
617.777
618.287
618.798
619.308
619.818
620.328
620.838
621.348
621.858
622.368
622.88
623.39
623.9
624.41
624.92
625.43
625.94
626.45
626.96
627.47
627.98
628.49
629.001
629.511
630.021
630.531
631.041
631.551
632.061
632.571
633.081
633.592
634.102
634.612
635.122
635.632
636.142
636.652
637.162
637.672
638.182
638.692
639.202
639.713
640.222
640.732
641.242
641.752
642.262
642.772
643.286
643.796
644.306
644.816
645.326
645.836
646.346
646.856
647.366
647.876
648.386
648.896
649.406
649.916
650.426
650.936
651.446
651.956
652.466
652.976
653.486
653.998
654.508
655.018
655.528
656.038
656.548
657.058
657.569
658.079
658.589
659.099
659.609
660.119
660.629
661.139
661.649
662.158
662.668
663.178
663.688
664.198
664.708
665.218
665.728
666.238
666.749
667.259
667.769
668.279
668.789
669.299
669.809
670.319
670.829
671.339
671.849
672.359
672.869
673.379
673.889
674.385
674.896
675.406
675.916
676.426
676.936
677.446
677.956
678.466
678.976
679.486
679.996
680.506
681.016
681.523
682.033
682.543
683.053
683.563
684.072
684.583
685.097
685.607
686.117
686.627
687.137
687.648
688.158
688.668
689.178
689.688
690.198
690.708
691.218
691.728
692.238
692.748
693.258
693.769
694.279
694.789
695.299
695.809
696.319
696.829
697.339
697.849
698.359
698.869
699.379
699.889
700.399
700.909
701.419
701.929
702.439
702.949
703.459
703.969
704.479
704.989
705.499
706.005
706.515
707.025
707.535
708.045
708.555
709.065
709.575
710.085
710.595
711.105
711.616
712.126
712.636
713.146
713.656
714.166
714.676
715.186
715.696
716.204
716.714
717.224
717.735
718.245
718.755
719.265
719.775
720.285
720.795
721.305
721.815
722.325
722.835
723.345
723.855
724.365
724.875
725.385
725.894
726.405
726.916
727.425
727.935
728.445
728.955
729.465
729.975
730.485
730.995
731.505
732.015
732.525
733.035
733.545
734.055
734.565
735.075
735.586
736.096
736.606
737.117
737.627
738.137
738.647
739.157
739.667
740.177
740.687
741.197
741.708
742.218
742.728
743.238
743.748
744.258
744.768
745.278
745.788
746.298
746.808
747.318
747.827
748.336
748.846
749.356
749.866
750.376
750.886
751.396
751.906
752.416
752.926
753.437
753.947
754.457
754.967
755.477
755.987
756.498
757.008
757.518
758.028
758.538
759.048
759.558
760.068
760.578
761.088
761.598
762.108
762.619
763.129
763.639
764.149
764.659
765.169
765.679
766.189
766.699
767.209
767.719
768.229
768.742
769.252
769.761
770.271
770.781
771.291
771.801
772.311
772.821
773.331
773.841
774.342
774.852
775.362
775.872
776.382
776.892
777.402
777.912
778.422
778.936
779.446
779.956
780.466
780.976
781.486
781.996
782.506
783.016
783.527
784.037
784.547
785.057
785.567
786.077
786.588
787.098
787.608
788.118
788.628
789.138
789.648
790.158
790.668
791.178
791.688
792.198
792.708
793.218
793.728
794.238
794.748
795.258
795.768
796.278
796.788
797.298
797.808
798.318
798.829
799.339
799.85
800.36
800.87
801.38
801.89
802.4
802.91
803.42
803.93
804.441
804.951
805.461
805.971
806.481
806.991
807.501
808.011
808.521
809.031
809.541
810.051
810.556
811.066
811.576
812.086
812.596
813.106
813.617
814.126
814.636
815.146
815.656
816.166
816.676
817.186
817.696
818.206
818.716
819.226
819.737
820.247
820.757
821.267
821.777
822.287
822.798
823.308
823.818
824.328
824.838
825.348
825.858
826.368
826.878
827.388
827.898
828.408
828.918
829.428
829.938
830.448
830.958
831.471
831.981
832.491
833.001
833.511
834.021
834.532
835.042
835.551
836.061
836.571
837.081
837.591
838.101
838.611
839.121
839.631
840.141
840.651
841.161
841.674
842.184
842.694
843.204
843.714
844.224
844.734
845.244
845.754
846.264
846.775
847.285
847.795
848.305
848.815
849.325
849.835
850.345
850.855
851.365
851.875
852.385
852.895
853.405
853.915
854.425
854.935
855.446
855.956
856.466
856.976
857.485
857.995
858.505
859.016
859.526
860.036
860.546
861.056
861.566
862.076
862.588
863.098
863.608
864.118
864.629
865.139
865.649
866.159
866.669
867.179
867.689
868.199
868.709
869.219
869.729
870.239
870.749
871.259
871.769
872.279
872.789
873.302
873.812
874.322
874.832
875.342
875.852
876.363
876.873
877.383
877.893
878.403
878.912
879.422
879.932
880.442
880.952
881.462
881.972
882.483
882.993
883.503
884.013
884.523
885.033
885.543
886.053
886.563
887.073
887.583
888.093
888.603
889.113
889.623
890.133
890.643
891.153
891.664
892.174
892.684
893.194
893.704
894.215
894.725
895.235
895.745
896.255
896.765
897.275
897.786
898.296
898.806
899.316
899.826
900.336
900.845
901.355
901.865
902.375
902.885
903.395
903.905
904.415
904.929
905.439
905.949
906.46
906.97
907.48
907.99
908.5
909.01
909.52
910.03
910.54
911.05
911.56
912.07
912.581
913.091
913.601
914.111
914.621
915.131
915.641
916.151
916.661
917.171
917.681
918.191
918.701
919.211
919.721
920.231
920.741
921.251
921.76
922.27
922.78
923.29
923.8
924.31
924.821
925.331
925.841
926.351
926.861
927.371
927.881
928.391
928.901
929.411
929.921
930.432
930.942
931.452
931.962
932.472
932.982
933.492
934.002
934.512
935.022
935.532
936.044
936.554
937.064
937.574
938.084
938.594
939.104
939.615
940.125
940.635
941.145
941.655
942.165
942.675
943.185
943.694
944.205
944.714
945.224
945.735
946.245
946.755
947.265
947.775
948.285
948.795
949.305
949.815
950.325
950.835
951.345
951.855
952.365
952.875
953.385
953.895
954.406
954.916
955.426
955.936
956.446
956.961
957.471
957.981
958.491
959.001
959.511
960.021
960.532
961.042
961.552
962.062
962.572
963.082
963.592
964.102
964.612
965.122
965.631
966.141
966.652
967.162
967.668
968.178
968.688
969.198
969.709
970.219
970.729
971.239
971.749
972.259
972.769
973.279
973.789
974.299
974.809
975.319
975.83
976.34
976.85
977.36
977.87
978.38
978.89
979.4
979.91
980.42
980.93
981.441
981.951
982.461
982.971
983.481
983.991
984.501
985.011
985.521
986.031
986.541
987.051
987.561
988.071
988.578
989.088
989.598
990.108
990.619
991.129
991.639
992.149
992.659
993.169
993.679
994.189
994.699
995.209
995.719
996.229
996.739
997.249
997.759
