fnirSoft:	Exported Text File
Version:	4.2
ExportDate:	12/18/2023 11:29:15 AM
VariableInfo
Name:	oxygraph29.hbo.Block1
Size:	1838 x 16
Type:	Numeric
Content:	Hemoglobin
Date:	12/18/2023 11:29:05 AM
Notes:	Oxygenated-hemoglobin concentration changes data saved by Oxygraph from file C:\Users\Anette Johansson\Documents\COBI Studio Data\friska kontroller\2034K\ANETTE_2034K_1_12130816.oxy
Labels:	HBO	DATA
VariableData
Hemoglobin	Hemoglobin	Hemoglobin	Hemoglobin	Hemoglobin	Hemoglobin	Hemoglobin	Hemoglobin	Hemoglobin	Hemoglobin	Hemoglobin	Hemoglobin	Hemoglobin	Hemoglobin	Hemoglobin	Hemoglobin
Optode1	Optode2	Optode3	Optode4	Optode5	Optode6	Optode7	Optode8	Optode9	Optode10	Optode11	Optode12	Optode13	Optode14	Optode15	Optode16
-0.143613	-0.159105	0.112542	-0.108489	-0.510537	-0.26093	-0.642312	-1.089916	-0.292027	-0.913421	-0.17013	-0.131451	-0.568819	-0.35341	-0.926438	-0.736641
-0.235069	-0.293278	-0.049856	-0.211558	-0.71619	-0.487482	-0.819347	-1.332676	-0.369703	-0.973522	-0.336192	-0.197773	-0.55961	-0.561086	-0.996539	-0.930053
-0.150264	-0.163676	-0.001049	-0.129409	-0.372408	-0.122919	-0.564181	-1.190458	-0.210832	-0.823684	-0.125347	-0.053884	-0.10094	-0.122604	-0.74865	-0.527364
-0.475714	-0.646848	-0.387658	-0.42318	-0.684771	-0.478937	-0.869205	-1.406469	-0.364419	-0.943674	-0.285013	-0.270129	-0.379649	-0.375629	-0.95539	-0.739649
-0.769369	-0.68638	-0.282066	-0.683578	-0.775239	-0.193313	-0.869205	-1.295427	-0.771489	-1.526397	-0.597429	-0.304522	-1.029801	-0.71631	-1.469168	-1.214006
-0.765457	-0.119547	0.214991	-0.606576	-1.127199	0.051483	-0.905738	-1.136275	-1.158558	-1.899982	-0.682286	-0.285203	-0.461567	-0.220175	-1.203822	-0.834963
-0.930232	-0.205616	0.244746	-0.727515	-1.631297	-0.079027	-1.24105	-1.279225	-1.616144	-2.298394	-1.067454	-0.22087	-2.057405	-1.290613	-2.282165	-2.119153
-1.370021	-0.853702	-0.160547	-1.205063	-2.537455	-0.618969	-1.966862	-1.794418	-2.108528	-2.790153	-1.462426	-0.136604	-1.948068	-1.005593	-2.036862	-2.190577
-1.438132	-1.069356	0.016109	-1.037615	-2.743319	-0.247094	-1.905695	-1.691383	-2.304408	-3.018657	-1.400616	0.177302	-1.228091	-0.157133	-1.846048	-1.973375
-1.532889	-1.298718	-0.058128	-0.901019	-2.81617	-0.153485	-1.797825	-1.525906	-2.655938	-3.333627	-1.77509	0.118058	-1.009208	0.054936	-1.72486	-2.13028
-1.44773	-0.942437	0.585237	-0.31881	-3.181129	-0.261612	-1.954144	-1.605334	-2.450189	-3.004786	-1.215478	0.677865	-1.837816	-0.389854	-2.44923	-3.030751
-1.781597	-1.424807	0.234456	-0.542923	-3.572131	-0.45765	-2.150124	-1.721196	-2.396205	-2.813063	-1.049493	0.988115	-1.45393	0.028659	-2.26659	-2.75448
-2.113745	-1.967913	-0.302217	-0.805532	-3.358131	-0.035821	-1.895522	-1.380358	-2.393472	-2.68545	-0.899383	1.162556	-1.373704	0.208132	-2.269071	-2.894922
-1.921637	-1.406718	0.091358	-0.484533	-3.358131	0.185146	-1.685206	-1.147624	-2.404225	-2.607941	-1.049131	1.1568	-1.395064	0.355695	-2.275721	-2.867305
-1.816579	-1.070781	0.179982	-0.354938	-3.465564	0.331434	-1.583283	-0.862066	-2.565921	-2.540317	-1.355426	1.045121	-1.375662	0.489503	-2.196158	-2.710932
-1.998378	-1.397877	-0.216276	-0.488407	-3.474454	0.482181	-1.57706	-0.786491	-2.162131	-1.963967	-0.720362	1.63623	-1.253433	0.665607	-2.094014	-2.583622
-1.562546	-0.512242	0.309954	-0.023286	-3.442273	0.587974	-1.511004	-0.679752	-2.126434	-1.841911	-0.634393	1.76231	-0.778387	1.1697	-1.662385	-1.905923
-1.347055	0.030935	0.637684	0.353707	-3.508617	0.606976	-1.563609	-0.599398	-1.826704	-1.396078	-0.070634	2.254953	-0.953892	1.1697	-1.626407	-1.894421
-1.248276	-0.081225	0.36317	0.348504	-2.743319	1.505598	-0.943343	0.122718	-1.727861	-1.252695	-0.208199	2.334557	-0.454454	1.565169	-1.21585	-1.367898
-0.924597	0.532299	0.896074	0.903523	-2.798136	1.57548	-0.97065	0.086159	-1.749659	-1.240973	-0.272428	2.358881	-0.769623	1.433456	-1.293271	-1.37339
-0.291438	1.246747	1.464433	1.531012	-2.530586	1.886864	-0.872536	0.193709	-1.605796	-1.289039	-0.090851	2.49786	-1.00758	1.321283	-1.299331	-1.257876
-0.477867	0.958366	1.169791	1.394834	-2.397176	2.057546	-0.726936	0.296252	-1.741398	-1.778355	-0.457219	2.194789	-1.003636	1.315869	-1.261669	-1.153425
-0.222979	1.198717	1.392151	1.649057	-2.368578	2.052628	-0.742752	0.145739	-1.611162	-1.924919	-0.263961	2.291214	-0.906382	1.462471	-1.184332	-1.061973
0.06471	1.77462	1.786528	2.032067	-2.613646	1.764321	-1.069461	-0.169593	-1.379711	-1.99362	0.121355	2.451029	-0.143091	2.053408	-0.654321	-0.400407
-0.149114	1.246747	1.351288	1.734266	-2.583749	1.757368	-1.106353	-0.358806	-1.531779	-2.382791	-0.232827	2.114329	-0.593925	1.765537	-0.957105	-0.617709
-0.206912	1.151728	1.254542	1.676737	-2.721506	1.577439	-1.345599	-0.653342	-1.397601	-2.407115	-0.138831	2.024328	-0.812316	1.48754	-1.107992	-0.670358
-0.160308	0.916378	1.116393	1.684541	-2.692515	1.454754	-1.453428	-0.857543	-1.428084	-2.645765	-0.270707	1.761821	-0.368858	1.909935	-0.84335	-0.308076
-0.264521	0.963399	1.074342	1.656795	-2.503444	1.628846	-1.299143	-0.830059	-1.517207	-2.892501	-0.457219	1.502184	-1.275209	1.250718	-1.453588	-0.824365
-0.28554	0.730145	0.948485	1.595783	-2.449258	1.609127	-1.350026	-0.895956	-1.542474	-3.034635	-0.490801	1.369325	-0.775311	1.650284	-1.223968	-0.428769
-0.249196	0.870377	1.011087	1.632805	-3.093013	0.863863	-1.936527	-1.497478	-1.678819	-3.246459	-0.835207	0.987407	-1.036676	1.314098	-1.448649	-0.648383
-0.540047	0.453515	0.656532	1.347451	-3.040013	0.91075	-1.943353	-1.527109	-1.758026	-3.318714	-1.009722	0.836359	-0.853524	1.499035	-1.333133	-0.414077
-0.611572	0.640069	0.750998	1.328784	-3.255499	0.641147	-2.192591	-1.755766	-1.676062	-3.256821	-0.936844	0.892275	-0.68386	1.679452	-1.337796	-0.314378
-1.149182	-0.327465	0.062478	0.749348	-2.799914	1.10407	-1.864782	-1.499722	-1.531779	-3.079079	-0.718032	1.011169	-1.088056	1.314098	-1.638854	-0.672404
-0.771084	0.640069	0.916764	1.207182	-2.825956	1.12338	-1.901916	-1.569134	-1.409794	-2.890757	-0.304978	1.274011	-1.351367	1.041163	-1.863797	-0.930053
-0.995537	0.267035	0.476414	0.970406	-2.771508	1.232681	-1.801483	-1.553851	-1.741042	-3.294333	-0.916911	0.838496	0.034853	2.253057	-1.031293	0.200535
-1.020434	0.178373	0.540491	0.977772	-3.149576	0.834013	-2.1322	-1.91767	-1.439332	-3.055048	-0.381932	1.171033	-0.411722	1.849388	-1.296381	-0.0787
-1.479851	-0.784655	-0.203943	0.436961	-3.389718	0.509762	-2.309372	-2.165798	-1.543708	-3.269182	-0.607684	1.0053	-1.407269	1.003708	-1.946096	-0.943005
-1.320737	-0.59809	-0.068	0.562319	-3.150521	0.767671	-2.194767	-2.132514	-1.484188	-3.231681	-0.481711	1.023448	-2.400421	0.133839	-2.520086	-1.688974
-1.357619	-0.690116	-0.162764	0.470527	-3.010454	0.875302	-2.038262	-2.136851	-1.514551	-3.35526	-0.621298	0.896623	-0.859191	1.385904	-1.526579	-0.398461
-1.093775	-0.272469	0.291843	0.732046	-3.201606	0.655599	-2.233493	-2.376241	-1.180256	-3.10814	-0.009139	1.273118	-1.436338	0.924392	-1.86677	-0.803695
-1.019308	-0.09603	0.381773	0.785476	-3.124911	0.714742	-2.189446	-2.436228	-1.109689	-3.055048	0.002458	1.292003	-0.553019	1.71423	-1.228703	0.057126
-1.075011	-0.22745	0.291843	0.698778	-3.209765	0.553438	-2.289319	-2.513351	-1.172356	-3.13776	-0.297175	1.07754	-0.824442	1.457571	-1.421345	-0.152207
-1.210426	-0.504146	0.038694	0.568081	-2.934507	0.835221	-2.001574	-2.292677	-1.011444	-2.916651	0.028895	1.292003	-1.270526	1.088987	-1.611619	-0.515188
-1.155206	-0.405542	0.232225	0.704096	-3.071713	0.63912	-2.170322	-2.383463	-1.018572	-2.821035	-0.04893	1.246668	-1.722484	0.680007	-1.919146	-0.829804
-1.277753	-0.539584	0.044914	0.609814	-2.719789	1.024053	-1.833174	-2.055873	-1.182245	-2.966134	-0.496426	0.957222	-2.435346	0.11503	-2.45591	-1.389134
-1.216976	-0.350736	0.359017	0.805933	-2.772639	0.843508	-1.965234	-2.095965	-1.31307	-3.000202	-0.781149	0.731471	-0.941078	1.343225	-1.376327	-0.185653
-1.13131	0.005623	0.543055	0.984934	-2.965913	0.743333	-2.067544	-2.164843	-1.252745	-2.908557	-0.705292	0.821783	-2.103463	0.346943	-2.143815	-1.068502
-1.38724	-0.391259	0.277085	0.742392	-2.854562	0.810582	-1.980102	-2.095965	-1.31307	-2.906599	-0.633536	0.848577	-1.303237	0.997549	-1.610252	-0.466944
-1.484078	-0.480937	0.295841	0.798433	-3.069056	0.554015	-2.184256	-2.275826	-1.270284	-2.800503	-0.508066	0.866933	-0.989453	1.296498	-1.379213	-0.124102
-1.556098	-0.520921	0.32901	0.744922	-3.627702	-0.105475	-2.669408	-2.749786	-1.450751	-3.042093	-0.905973	0.622472	-1.800546	0.551127	-1.996101	-1.009155
-1.741017	-0.862423	-0.014796	0.573022	-3.093864	0.443732	-2.227641	-2.410306	-1.35323	-2.954431	-0.732013	0.667387	-2.520275	-0.181116	-2.549616	-1.707292
-1.794351	-0.947164	-0.043958	0.52043	-3.526464	-0.05367	-2.669408	-2.872602	-1.306111	-2.966803	-0.823799	0.60666	-1.696769	0.527167	-1.988647	-0.996173
-1.894319	-1.11039	-0.119992	0.378251	-3.765924	-0.450627	-2.935687	-3.146682	-1.242965	-2.946717	-0.787774	0.54587	-1.152474	0.837572	-1.562937	-0.55789
-1.919332	-1.204778	-0.285055	0.247795	-3.389718	-0.133419	-2.67108	-2.961748	-1.338421	-3.010769	-0.937423	0.356612	-1.640942	0.497646	-1.795123	-0.834963
-1.728742	-0.853702	0.011083	0.413314	-3.28193	-0.113526	-2.57726	-2.865728	-1.470746	-3.187863	-1.174289	0.151495	-2.139725	0.0629	-2.222708	-1.257876
-1.814982	-1.391464	-0.463898	0.05377	-2.990101	0.108433	-2.361415	-2.587686	-1.508	-3.184328	-1.242113	0.053431	-2.641737	-0.42574	-2.506474	-1.627463
-1.291297	-0.465177	0.292838	0.535433	-3.282974	-0.212778	-2.555734	-2.778494	-1.760986	-3.345812	-1.758114	-0.371532	-2.202341	-0.114752	-2.102506	-1.127456
-1.574629	-1.257975	-0.463898	0.03008	-3.335817	-0.300166	-2.5519	-2.715667	-1.310039	-2.812494	-0.782364	0.240753	-1.881179	0.264007	-1.775437	-0.725444
-1.200669	-0.59414	0.201471	0.41586	-3.467585	-0.494057	-2.739488	-2.807531	-1.357643	-2.802564	-0.914707	0.155222	-2.01391	0.208132	-1.779046	-0.778405
-1.514288	-1.210772	-0.279562	0.003371	-3.601465	-0.603429	-2.790468	-2.801338	-1.442774	-2.859371	-1.09176	0.092781	-1.664285	0.414025	-1.625216	-0.466944
-1.266897	-0.679342	0.16113	0.234553	-3.440111	-0.448665	-2.624162	-2.645913	-1.587233	-2.885116	-1.403305	-0.037761	-1.687929	0.494195	-1.639328	-0.568946
-1.562242	-1.462813	-0.532062	-0.138717	-3.307294	-0.339371	-2.559584	-2.528428	-1.484333	-2.769645	-1.226861	0.126157	-2.057027	0.058706	-1.892751	-0.982779
-1.3342	-0.97023	-0.087205	0.100133	-3.601465	-0.666748	-2.854813	-2.838342	-1.532765	-2.851792	-1.313932	0.137866	-1.79166	0.264007	-1.699593	-0.732538
-1.291297	-0.933967	-0.102091	0.118668	-3.360021	-0.481967	-2.735503	-2.726227	-1.524403	-2.879627	-1.270411	0.128507	-2.262356	-0.067234	-2.099705	-1.055592
-1.249642	-0.757975	0.051198	0.183331	-3.175136	-0.260857	-2.534195	-2.59336	-1.567052	-2.889421	-1.426294	0.012405	-2.004369	0.101312	-1.928592	-1.002895
-1.429608	-1.190449	-0.353547	-0.067356	-3.422082	-0.494057	-2.730027	-2.785354	-1.174689	-2.506092	-0.590413	0.519529	-1.686436	0.236571	-1.691493	-0.775424
-1.242453	-0.888876	0.029487	0.113059	-3.346204	-0.46077	-2.738117	-2.843166	-1.406766	-2.812543	-1.028068	0.227388	-1.443572	0.517418	-1.587112	-0.527646
-1.477944	-1.324821	-0.480137	-0.135591	-3.291833	-0.463396	-2.690973	-2.867682	-1.275458	-2.777271	-0.859231	0.25744	-1.863676	0.037366	-1.920975	-1.082054
-1.213821	-0.923627	0.05384	0.16704	-3.66817	-0.877268	-3.025605	-3.199622	-1.151977	-2.689771	-0.610949	0.393607	-1.330535	0.421361	-1.611619	-0.602656
-1.489848	-1.315574	-0.433285	-0.146708	-3.394404	-0.649024	-2.799809	-3.09293	-1.331625	-2.834918	-0.929592	0.149635	-1.117228	0.580019	-1.500853	-0.4296
-1.616186	-1.487863	-0.524535	-0.302759	-3.206599	-0.512522	-2.667149	-2.941064	-1.61863	-3.163974	-1.427681	-0.215722	-1.368372	0.380943	-1.632028	-0.55877
-1.556098	-1.4017	-0.524535	-0.273418	-3.52909	-0.84055	-2.936294	-3.208085	-1.509914	-3.011682	-1.172675	-0.016654	-1.56932	0.152454	-1.737535	-0.806563
-1.381695	-1.184162	-0.137954	-0.049783	-3.456324	-0.717497	-2.871303	-3.086149	-1.501621	-2.991155	-1.15991	-0.021194	-1.390471	0.297026	-1.658363	-0.708421
-1.291297	-0.844076	0.021877	0.129619	-3.478853	-0.808084	-2.884474	-3.049479	-1.532765	-2.982453	-1.275762	-0.005384	-1.270526	0.465684	-1.588729	-0.580765
-1.321455	-0.929028	-0.087205	0.097404	-3.403166	-0.742915	-2.871303	-2.967976	-1.389366	-2.758347	-0.890675	0.246131	-1.591071	0.075327	-1.902915	-0.969453
-1.15348	-0.54202	0.234456	0.282515	-3.21306	-0.529871	-2.759656	-2.853023	-1.3545	-2.683234	-0.949354	0.229787	-1.487269	0.161209	-1.777226	-0.84518
-1.459741	-1.020545	-0.262281	-0.008262	-3.01931	-0.356163	-2.57726	-2.708189	-1.228	-2.549474	-0.772142	0.321829	-1.664285	-0.039457	-2.045928	-1.146951
-1.537864	-1.18568	-0.347938	-0.029007	-3.079419	-0.342154	-2.635924	-2.781113	-1.314136	-2.67946	-0.929592	0.213325	-1.301108	0.199181	-1.809729	-0.918553
-1.477827	-1.057412	-0.228665	0.115874	-3.300351	-0.550048	-2.810927	-2.971525	-1.314136	-2.683234	-0.92716	0.163765	-2.203893	-0.58449	-2.506474	-1.701708
-1.183663	-0.456662	0.344532	0.517532	-3.318422	-0.621236	-2.919043	-3.116894	-1.46078	-2.863423	-1.158631	-0.043424	-0.987856	0.482581	-1.689961	-0.640042
-1.44777	-0.932679	-0.050878	0.258878	-3.0211	-0.306038	-2.634004	-2.935617	-1.288598	-2.715256	-0.740741	0.121441	-0.991089	0.436336	-1.613014	-0.640042
-1.232674	-0.498891	0.424988	0.607024	-3.494263	-0.768361	-3.034162	-3.286442	-1.3545	-2.780821	-0.816894	0.008996	-1.29697	0.180993	-1.799731	-0.856416
-1.561808	-1.10113	-0.090993	0.229097	-3.134003	-0.487333	-2.807873	-3.106958	-1.627309	-3.109707	-1.348988	-0.405633	-1.745511	-0.308969	-2.108494	-1.237933
-1.567815	-1.051091	0.013949	0.212939	-3.795456	-1.09669	-3.308318	-3.573003	-1.331625	-2.782678	-0.812368	-0.072327	-1.170017	0.231916	-1.573877	-0.640042
-1.800555	-1.563698	-0.489684	-0.096866	-3.320822	-0.717138	-2.953523	-3.281144	-1.587149	-3.037732	-1.348988	-0.340199	-2.568847	-0.881453	-2.5495	-1.788921
-1.567815	-1.175786	-0.065699	0.186008	-3.136182	-0.487333	-2.790468	-3.065958	-1.498218	-2.861647	-1.079362	-0.213851	-2.620721	-0.929175	-2.512036	-1.73161
-1.400052	-0.92788	0.011083	0.234553	-3.629097	-0.914159	-3.188245	-3.36256	-1.688266	-2.974762	-1.46645	-0.370511	-0.819605	0.549156	-1.2748	-0.276549
-1.495917	-1.053516	-0.188819	0.175164	-3.527095	-0.765983	-3.094411	-3.183353	-1.680275	-2.874351	-1.50277	-0.40348	-0.816574	0.636668	-1.272595	-0.1937
-1.537864	-1.27003	-0.393438	0.04802	-2.869019	-0.09209	-2.514181	-2.628394	-1.428554	-2.5585	-0.988885	-0.036867	-0.775311	0.698836	-1.158882	-0.115999
-1.567845	-1.352465	-0.421756	-0.014203	-3.208588	-0.422151	-2.879062	-2.90213	-1.239981	-2.353809	-0.729526	0.144837	-0.901683	0.431367	-1.232397	-0.284412
-1.315652	-1.01253	0.051198	0.291373	-3.231535	-0.46077	-2.861879	-2.948429	-1.256741	-2.386153	-0.770804	0.156362	-1.21579	0.139139	-1.388117	-0.474448
-1.411777	-1.181231	-0.079967	0.231836	-2.818567	-0.145491	-2.529903	-2.685851	-1.046392	-2.13756	-0.358022	0.336534	-1.492407	0.054488	-1.432865	-0.329633
-1.297106	-0.93021	0.128651	0.313118	-3.321103	-0.675004	-2.969999	-3.104507	-0.84587	-2.059927	-0.061967	0.530019	-1.681754	-0.181116	-1.515478	-0.54761
-1.603896	-1.523843	-0.376646	-0.04684	-2.879053	-0.30573	-2.615166	-2.864438	-1.163867	-2.449647	-0.540902	0.159073	-2.299554	-0.662616	-1.923205	-0.906996
-1.291297	-0.971428	0.16913	0.223551	-2.658609	-0.170737	-2.454789	-2.8347	-1.268701	-2.609785	-0.814624	-0.005384	-0.796158	0.494195	-0.938951	0.248857
-1.358474	-1.21764	-0.007379	0.153747	-3.105454	-0.682291	-2.909438	-3.251021	-1.242744	-2.638123	-0.684934	0.034686	-0.68656	0.502623	-0.852995	0.237665
-1.375842	-1.263771	-0.131063	0.05093	-3.325676	-0.930539	-3.06085	-3.387795	-1.30045	-2.69563	-0.885094	-0.036867	-0.416942	0.75057	-0.619053	0.486602
-1.249642	-1.136438	-0.039897	0.145507	-3.245768	-0.874983	-3.048204	-3.348357	-1.105212	-2.449647	-0.470553	0.279434	-0.732427	0.502623	-0.776683	0.220865
-1.121155	-1.015062	0.00749	0.188059	-3.141189	-0.705389	-2.948806	-3.227431	-0.915201	-2.215439	-0.271126	0.495407	-1.038443	0.190134	-1.008716	-0.129668
-0.905714	-0.540536	0.334331	0.418384	-2.805819	-0.437978	-2.735606	-2.959288	-0.627816	-1.743829	0.434734	0.897685	-1.819503	-0.381522	-1.408115	-0.823094
-1.098596	-0.880498	0.093776	0.264285	-2.672405	-0.2043	-2.547365	-2.698681	-1.054512	-2.14413	-0.505872	0.372489	-0.957486	0.301684	-0.933962	-0.245226
-1.242453	-1.013778	-0.171088	0.161107	-2.444288	0.001741	-2.391227	-2.508959	-1.064222	-2.124964	-0.586253	0.336534	-1.020405	0.281815	-1.100144	-0.353426
-1.219484	-0.838298	0.013949	0.323822	-2.834453	-0.353694	-2.696269	-2.716994	-1.131159	-2.161328	-0.749712	0.225108	-1.37097	-0.03144	-1.251683	-0.643863
-0.939751	-0.45397	0.394528	0.639147	-2.614954	-0.099643	-2.543189	-2.518523	-1.364578	-2.388438	-1.2077	-0.071075	-1.132076	0.143601	-0.970932	-0.444005
-1.166942	-0.709406	0.104247	0.540259	-2.860734	-0.277614	-2.692016	-2.659361	-1.242744	-2.264505	-0.981693	0.018064	-1.517657	-0.129974	-1.374358	-0.850036
-1.13135	-0.624856	0.173781	0.567788	-2.526396	0.046055	-2.409141	-2.430058	-1.271512	-2.237278	-0.969095	0.003548	-1.056147	0.212571	-1.056009	-0.51281
-1.609568	-1.259445	-0.376369	0.169609	-2.881239	-0.353348	-2.658598	-2.710943	-1.262427	-2.16336	-0.914747	-0.013342	-0.63264	0.558961	-0.73425	-0.189344
-1.859993	-1.686711	-0.841365	-0.112258	-2.718113	-0.126223	-2.480558	-2.537499	-1.16936	-2.101654	-0.727246	0.114326	-1.134111	0.139139	-1.128941	-0.550006
-1.758473	-1.59953	-0.659642	0.077678	-2.911973	-0.40089	-2.714462	-2.729122	-1.443135	-2.42473	-1.330079	-0.302699	-1.487269	-0.114752	-1.207525	-0.76107
-1.514673	-0.960101	-0.08414	0.393611	-2.685078	-0.144219	-2.482543	-2.584101	-1.230686	-2.173595	-0.826131	0.041527	-1.122502	0.065912	-1.086977	-0.685078
-1.651183	-1.131464	-0.274986	0.212939	-3.185638	-0.570829	-2.892067	-2.90087	-1.193784	-2.188129	-0.758766	0.051191	-0.81807	0.273388	-0.775996	-0.331849
-1.639398	-1.056078	-0.370543	0.151022	-2.960705	-0.336791	-2.61109	-2.68861	-1.344488	-2.365005	-1.042674	-0.222058	-0.955669	0.227238	-0.817159	-0.384654
-1.811699	-1.268412	-0.620104	-0.079148	-2.715189	-0.085125	-2.353463	-2.40726	-1.390828	-2.380374	-1.17009	-0.266455	-1.643963	-0.398953	-1.218705	-0.996173
-1.568313	-0.667738	-0.264047	0.23604	-3.026288	-0.342154	-2.547365	-2.503002	-1.510103	-2.318645	-1.335626	-0.463417	-1.038443	0.015421	-0.700657	-0.474637
-1.609647	-0.627175	-0.257361	0.290004	-2.942949	-0.314125	-2.51183	-2.353341	-1.396777	-2.090246	-1.210559	-0.290614	-1.178131	-0.123028	-0.743866	-0.497045
-1.267484	-0.199572	0.195295	0.544256	-2.946745	-0.255153	-2.436279	-2.180525	-1.4083	-2.062656	-1.191217	-0.249938	-0.829636	0.287639	-0.350847	-0.037842
-1.406892	-0.328242	-0.007379	0.462757	-2.942949	-0.316936	-2.432099	-2.093395	-1.224322	-1.771648	-0.756602	0.050582	-0.55426	0.329157	-0.069239	0.27011
-1.104386	0.100362	0.474533	0.868376	-2.865573	-0.167828	-2.289617	-1.895565	-1.276861	-1.776237	-1.026537	-0.028193	-0.84112	0.212571	-0.113471	0.144502
-1.172485	-0.026694	0.152811	0.698934	-2.758858	-0.12796	-2.243593	-1.757388	-1.018785	-1.467861	-0.555694	0.263005	-0.839103	0.156844	-0.114624	0.271119
-0.975231	0.232333	0.4148	0.950596	-2.590332	0.03314	-2.127763	-1.629536	-1.079544	-1.449329	-0.783077	0.189241	-1.074706	-0.035436	-0.199871	0.13809
-1.021566	0.234371	0.224187	0.854913	-2.618078	0.03314	-2.082998	-1.565344	-1.002363	-1.393761	-0.710559	0.16777	-1.062787	-0.102524	-0.19823	0.185309
-0.96102	0.190991	0.244656	0.886853	-2.566774	0.130811	-2.001335	-1.476545	-1.103067	-1.495604	-0.877694	0.070681	-1.164348	-0.239564	-0.202566	0.122366
-0.952371	0.280169	0.112696	0.844686	-2.539968	0.133908	-1.982876	-1.431088	-1.150188	-1.56173	-0.992892	-0.06896	-0.894745	0.114188	0.085685	0.674412
-0.988307	0.324352	0.133756	0.878895	-2.656211	0.060398	-2.085161	-1.54501	-1.200462	-1.643078	-1.02391	-0.103095	-1.384613	-0.34839	-0.160647	0.225774
-1.21104	-0.165964	-0.444886	0.498024	-2.570095	0.136999	-1.986922	-1.402987	-1.420999	-1.827684	-1.317983	-0.282659	-1.067426	-0.098499	-0.038136	0.353842
-0.882827	0.414118	0.043255	0.844686	-2.798185	-0.079322	-2.228375	-1.580445	-1.329746	-1.781524	-1.185846	-0.147978	-1.193907	-0.207915	-0.119611	0.289684
-0.96895	0.369424	-0.105457	0.728864	-2.884518	-0.215952	-2.349102	-1.638717	-1.29445	-1.741662	-1.142013	-0.113766	-1.34296	-0.290414	-0.246675	0.265877
-1.016389	0.324852	-0.195691	0.694528	-2.766362	-0.085096	-2.233826	-1.515651	-1.320823	-1.711241	-1.20495	-0.177691	-1.295641	-0.341192	-0.203527	0.314009
-0.924597	0.549175	-0.127052	0.750127	-2.881616	-0.076446	-2.336065	-1.551274	-1.168429	-1.497865	-0.865236	0.029294	-0.74377	0.092606	0.088816	0.722033
-0.765614	1.001005	0.173781	0.995477	-2.828832	0.017982	-2.299945	-1.460142	-1.186137	-1.495604	-0.89	-0.090334	-1.612396	-0.644354	-0.64666	-0.125146
-1.087803	0.275686	-0.508248	0.575593	-2.403128	0.491659	-1.884797	-1.087828	-1.326759	-1.601634	-1.251443	-0.313985	-1.482414	-0.540314	-0.606273	0.049535
-0.941599	0.640157	-0.108992	0.859772	-2.746507	0.161503	-2.205929	-1.329273	-1.462036	-1.690457	-1.514937	-0.587867	-0.839103	-0.059945	-0.233871	0.656864
-0.958896	0.686042	-0.102091	0.8484	-2.432246	0.462746	-1.956344	-1.103522	-1.088912	-1.266931	-0.788448	-0.090334	-1.618896	-0.644354	-0.760469	0.034271
-1.045284	0.549446	-0.171088	0.787596	-2.579653	0.366604	-2.093489	-1.219057	-1.265115	-1.402162	-1.18305	-0.292615	-0.338086	0.343559	0.091811	1.043422
-0.989678	0.640384	-0.073056	0.930621	-2.490594	0.443732	-2.009438	-1.165761	-1.176988	-1.355491	-1.078692	-0.177691	-0.567184	0.143601	-0.070325	0.826031
-1.173814	0.323211	-0.32508	0.780354	-2.63582	0.337667	-2.201686	-1.37185	-0.996758	-1.057966	-0.607905	0.184652	-0.660932	0.152454	-0.070667	0.882599
-1.118505	0.368613	-0.20487	0.864624	-2.613007	0.408388	-2.196265	-1.365124	-0.941619	-1.090128	-0.59396	0.175415	-1.456902	-0.429042	-0.642725	0.21764
-1.087803	0.279179	-0.244985	0.925898	-2.529679	0.44709	-2.151218	-1.322445	-0.923626	-1.016143	-0.516722	0.227451	-1.543148	-0.578291	-0.681636	0.105482
-0.970594	0.278518	-0.158674	1.008607	-2.215377	0.733009	-1.898341	-1.069008	-0.884871	-1.035771	-0.541729	0.180043	-1.543148	-0.628997	-0.721751	-0.006325
-0.731486	0.59378	0.260985	1.326757	-2.365728	0.63912	-2.018405	-1.203297	-0.819933	-0.961582	-0.387214	0.298682	-1.40877	-0.42574	-0.561021	0.209754
-0.773646	0.45921	0.269199	1.351648	-1.956687	0.961306	-1.685747	-0.898715	-1.088116	-1.238644	-0.965316	-0.086278	-1.543148	-0.67672	-0.68293	-0.006325
-0.72594	0.592829	0.434048	1.482139	-2.277776	0.665219	-1.972928	-1.138719	-0.955293	-1.070317	-0.650892	0.122534	-1.127399	-0.228535	-0.316886	0.353842
-0.897253	0.324647	0.124999	1.285162	-2.015571	0.876501	-1.720413	-0.953773	-0.916527	-1.015766	-0.603193	0.191529	-0.845281	-0.082655	-0.071865	0.505512
-0.854986	0.280335	0.198777	1.382779	-2.168934	0.704727	-1.898678	-0.998203	-0.744603	-0.744132	-0.372692	0.382176	0.070732	0.673072	0.623786	1.308746
-1.07596	-0.165166	-0.239311	1.063232	-2.048786	0.739897	-1.767561	-0.897111	-0.681987	-0.613314	-0.271852	0.568754	-0.299174	0.428163	0.41861	0.996003
-0.776587	0.458405	0.301555	1.540742	-1.96435	0.861228	-1.707011	-0.804287	-0.514473	-0.332761	-0.065476	0.739747	-1.237948	-0.306869	-0.201637	0.177067
-1.167831	-0.296626	-0.267962	1.094227	-2.13908	0.629158	-1.757037	-0.845961	-0.477441	-0.31808	0.006933	0.820287	-0.446088	0.247185	0.377286	0.748568
-0.80184	0.413645	0.444481	1.570134	-1.644487	1.116647	-1.407306	-0.475653	-0.577	-0.425342	-0.337491	0.644905	-0.863647	-0.059686	0.086849	0.362039
-0.874468	0.146686	0.066115	1.40777	-1.560913	1.19884	-1.314681	-0.374368	-0.452953	-0.266324	-0.110814	0.822648	-0.309912	0.351332	0.501803	0.683168
-0.874468	0.236048	0.16913	1.470331	-1.56226	1.202622	-1.248564	-0.327845	-0.328318	-0.131985	0.015	0.92295	-0.589562	0.04759	0.334931	0.457789
-1.057074	-0.165166	-0.100822	1.36567	-1.623107	1.18398	-1.26835	-0.383602	-0.36575	-0.215035	-0.079183	0.84437	-0.777319	-0.000439	0.334931	0.337407
-0.866391	0.191363	0.258269	1.493449	-1.383472	1.354797	-1.049757	-0.183728	-0.394516	-0.283311	-0.242535	0.757357	-0.642128	0.111183	0.543308	0.514001
-1.013314	-0.25631	-0.135839	1.293679	-1.443694	1.302932	-1.057264	-0.245769	-0.378391	-0.257639	-0.217064	0.784319	-0.564043	0.280123	0.541806	0.482909
-0.700544	0.236143	0.4643	1.627215	-1.738497	0.983139	-1.3072	-0.460725	-0.352065	-0.260529	-0.18728	0.679277	-0.367187	0.473694	0.753847	0.674412
-0.675101	0.1472	0.258269	1.526966	-1.650835	1.068487	-1.264357	-0.414343	-0.487116	-0.454298	-0.556567	0.492707	-0.231462	0.482493	0.923994	0.739735
-0.565716	0.324528	0.525853	1.664182	-1.411839	1.245787	-1.022582	-0.18837	-0.262094	-0.186409	-0.079183	0.715	-0.129573	0.569856	1.050492	0.864292
-0.477867	0.413993	0.52501	1.721677	-1.647148	0.990816	-1.271935	-0.354408	-0.338406	-0.194578	-0.272455	0.633237	0.150604	0.929631	1.306873	1.128334
-0.737065	0.103169	0.158206	1.40567	-1.971217	0.681143	-1.451385	-0.474439	-0.402215	-0.214596	-0.457573	0.463765	-0.695395	0.16337	0.753888	0.385028
-0.846987	-0.254386	-0.181825	1.302999	-1.856969	0.894315	-1.323334	-0.283711	-0.575244	-0.313089	-0.695095	0.368172	-0.222479	0.512716	1.050939	0.686488
-0.62768	0.147721	0.201471	1.507573	-1.941203	0.788261	-1.408805	-0.241206	-0.225498	0.209176	-0.251622	0.826819	-0.274281	0.526343	1.009043	0.695392
-0.810287	-0.119547	-0.176071	1.307521	-1.766805	0.994493	-1.221409	-0.030151	-0.399279	0.057674	-0.562011	0.589492	-0.593892	0.20347	0.711547	0.351589
-0.779318	-0.031688	-0.16471	1.278536	-1.471349	1.322915	-1.01401	0.23385	-0.305992	0.189055	-0.398278	0.753291	-0.455701	0.355695	0.711532	0.462874
-0.734353	0.099582	-0.199015	1.329762	-1.76767	1.024053	-1.201881	0.122046	-0.196504	0.406741	-0.239691	0.846183	-1.150308	-0.258736	0.20657	-0.082419
-0.457376	0.638457	0.201471	1.6291	-1.532286	1.279407	-0.950802	0.37289	-0.222957	0.44623	-0.221072	0.878521	-0.639837	0.147401	0.500795	0.343197
-0.683492	0.278136	-0.239311	1.394834	-1.683418	1.209606	-1.02488	0.421075	-0.204049	0.586224	-0.228275	0.807386	-0.866141	-0.214216	0.291758	0.0198
-0.316834	0.911971	0.22046	1.781233	-1.38655	1.466329	-0.799838	0.719239	-0.196504	0.5829	-0.293369	0.819093	-1.202035	-0.409667	0.080631	-0.122158
-0.364406	0.685977	-0.003617	1.71425	-1.8328	0.931033	-1.210618	0.378874	-0.298331	0.449459	-0.413966	0.616388	-1.583167	-0.603238	-0.21491	-0.353717
-0.201408	1.050358	0.190762	1.874554	-1.656683	1.168985	-1.064389	0.611291	-0.410028	0.372797	-0.551484	0.575087	-1.257509	-0.248691	0.078902	0.074542
-0.429266	0.6399	-0.210599	1.704467	-1.742952	1.042479	-1.099836	0.585423	-0.181756	0.676355	-0.121399	0.947409	-1.299664	-0.200351	0.080631	0.018943
0.010167	1.237684	0.301555	2.062404	-1.77519	1.053468	-1.135525	0.577341	-0.243265	0.619533	-0.219254	0.849673	-1.632464	-0.549095	-0.256424	-0.277235
-0.005386	1.285687	0.158206	2.028787	-1.478954	1.37062	-0.878664	0.827178	-0.146292	0.824359	-0.027283	1.062024	-1.208535	-0.193593	0.164094	0.273852
0.010788	1.33536	0.136141	2.021965	-1.65944	1.213936	-1.068392	0.683776	-0.212922	0.703604	-0.267715	0.895252	-1.176234	-0.232547	0.119842	0.37024
0.220303	1.479429	0.288115	2.143864	-1.390869	1.506841	-0.822413	0.987843	-0.276998	0.622997	-0.386047	0.868095	-1.101498	-0.062703	0.156167	0.598394
0.437259	1.812924	0.482269	2.434537	-1.538	1.352402	-0.913928	0.895918	-0.359192	0.622484	-0.564686	0.694632	-0.749373	0.284117	0.541806	1.085522
0.253545	1.43629	0.161526	2.232521	-1.304353	1.617923	-0.697686	1.179806	-0.09909	0.954754	-0.249202	0.987622	-0.610465	0.548532	0.668857	1.396633
0.40468	1.527524	0.217513	2.27341	-1.395992	1.504565	-0.733302	1.193983	-0.222104	0.839018	-0.524235	0.951217	-0.541136	0.636376	0.838437	1.781564
0.286124	1.198932	-0.083428	2.102504	-1.30789	1.611782	-0.599925	1.352981	-0.001035	1.089039	-0.228275	1.246935	-0.86584	0.36839	0.581916	1.440487
0.618554	1.67444	0.254805	2.364632	-1.245291	1.652413	-0.564288	1.39259	0.16544	1.352382	-0.006886	1.512275	-0.30008	0.852221	1.01069	2.003443
0.801724	1.966368	0.479725	2.556709	-1.003046	1.875072	-0.355738	1.577346	0.267522	1.506893	0.147556	1.574697	-0.688196	0.541009	0.709353	1.738382
0.86806	1.917931	0.438356	2.5238	-0.88545	2.063482	-0.206478	1.724167	0.381786	1.615043	0.317511	1.76858	-1.158919	0.226112	0.495574	1.574799
1.206118	2.499821	0.875359	2.889805	-0.764004	2.178013	-0.055823	1.892704	0.189649	1.417549	-0.232602	1.392295	0.332146	1.419339	1.481624	2.882682
1.020234	2.162124	0.593149	2.684432	-0.64281	2.315764	0.085182	2.050612	0.392243	1.610339	0.071367	1.66286	-0.444194	0.861275	0.924579	2.300852
1.306697	2.544927	0.979571	2.921865	-1.102091	1.824415	-0.316868	1.709243	0.643947	1.904824	0.456302	1.979107	-0.017512	1.248405	1.313607	2.788206
1.25514	2.405282	0.864826	2.882548	-0.61247	2.320398	0.096326	2.11367	0.5377	1.803622	0.136122	1.812003	0.279256	1.496532	1.484176	2.929744
1.327026	2.546942	0.917115	2.917151	-0.582226	2.325029	0.089431	2.148699	0.845575	2.193373	0.853179	2.317072	0.32965	1.441617	1.569207	2.843935
1.082451	1.9685	0.404635	2.645248	-0.521367	2.45929	0.210381	2.233815	0.843576	2.22632	0.714258	2.246448	0.231594	1.496532	1.440798	2.70824
1.411851	2.640886	0.979571	2.987303	-0.428818	2.502792	0.220491	2.241561	0.788795	2.243807	0.6202	2.218532	0.131363	1.298251	1.356021	2.472469
1.025004	2.110759	0.562607	2.716165	-0.799182	2.196526	-0.002784	2.022447	0.916204	2.351612	0.907694	2.335892	-0.983479	0.452109	0.580392	1.52839
1.18609	2.44123	0.90652	2.956203	-0.737434	2.2544	0.050536	2.065743	0.871745	2.241713	0.800257	2.313564	-0.647382	0.669267	0.838437	1.740929
0.944012	2.056857	0.584425	2.753479	-0.490372	2.445084	0.188867	2.248482	0.367876	1.702765	-0.177922	1.57871	-0.387015	0.852221	1.009884	1.951006
1.161607	2.675871	1.125058	3.056032	-0.336552	2.596675	0.395051	2.441686	0.722673	2.062237	0.460007	2.049357	-0.609685	0.786598	0.881123	1.902248
0.71237	1.723218	0.291843	2.548958	-0.398106	2.529229	0.420058	2.470401	0.55558	1.913089	0.291331	2.036962	-0.215045	1.203379	1.227129	2.163243
1.212086	2.668416	1.103188	3.124551	-0.829305	2.156481	0.068303	2.150652	0.716575	2.050883	0.426295	2.184556	0.376063	1.661786	1.526732	2.547418
0.854095	2.008616	0.479725	2.750768	-0.428845	2.457216	0.341825	2.477632	0.736658	2.112099	0.4769	2.265376	0.177362	1.51876	1.529274	2.460668
0.929535	2.142039	0.657872	2.855466	-0.79781	2.081151	0.046969	2.179053	0.795026	2.243807	0.542572	2.315536	0.081848	1.413659	1.442253	2.388969
0.684341	1.717537	0.336925	2.520707	-0.613724	2.262795	0.118194	2.304615	0.964492	2.389299	0.825119	2.498602	0.17559	1.529724	1.574524	2.400173
1.212086	2.470209	0.89562	3.058903	-0.490484	2.409155	0.353644	2.45232	0.679704	2.056118	0.243663	2.069741	0.858019	2.093092	2.005916	2.972489
0.863505	1.76407	0.378056	2.655617	-0.552293	2.351529	0.271717	2.41241	0.748476	2.166418	0.351343	2.218532	-0.063037	1.303405	1.486474	2.246469
1.150093	2.276072	0.874434	3.027558	-0.367375	2.483561	0.391821	2.538912	0.736658	2.087864	0.367929	2.11744	-0.058903	1.35325	1.400055	2.197495
0.958	1.908566	0.438356	2.783983	-0.490197	2.399711	0.313553	2.441639	0.643947	1.978176	0.254626	2.053402	0.235913	1.60083	1.613648	2.429861
1.108374	2.282225	0.792368	3.023734	-0.736642	2.200669	0.178595	2.304615	0.861129	2.25252	0.725929	2.42498	-0.104251	1.397611	1.399453	2.27308
0.759909	1.622404	0.243552	2.718982	-0.766461	2.160651	0.082463	2.200753	0.564216	1.844164	0.047559	2.04355	0.032223	1.5741	1.53156	2.344098
0.890952	1.941217	0.576458	2.928283	-0.79659	2.125232	0.03278	2.168965	0.813048	2.167162	0.636736	2.446642	-0.594066	1.093464	1.184407	1.84998
0.820852	1.803899	0.462747	2.858957	-0.581798	2.287868	0.25199	2.395117	0.794833	2.106035	0.480662	2.258431	-0.158043	1.45807	1.358043	2.115978
0.899844	1.986803	0.535516	2.862253	-0.795859	2.142607	0.124527	2.201976	0.700602	2.033874	0.335538	2.198192	-0.33102	1.212374	1.226043	1.895352
0.549945	1.61738	0.23619	2.658377	-0.796216	2.173469	0.198974	2.301969	0.794833	2.130036	0.478789	2.177716	-0.096466	1.375863	1.355443	2.110019
0.722669	2.037764	0.73043	2.993481	-0.79659	2.151638	0.192255	2.330516	0.958769	2.306408	0.808068	2.436255	-0.196615	1.272094	1.31314	2.120975
0.387348	1.381415	0.113783	2.561089	-0.979002	1.957995	-0.006203	2.133892	0.532967	1.83936	0.08695	1.860797	0.134807	1.606617	1.57531	2.429861
0.675984	1.936037	0.689155	2.931205	-1.039019	1.839702	-0.002697	2.155468	0.550704	1.871621	0.028336	1.841749	-0.063037	1.452611	1.489726	2.224425
0.305327	1.239204	0.03677	2.436006	-1.159805	1.682854	-0.154327	2.030956	0.600774	1.943396	0.169164	1.98162	-0.543997	1.133758	1.184786	1.839673
0.587899	1.69819	0.495461	2.802727	-1.309423	1.553193	-0.220858	1.928431	0.596681	1.932128	0.047559	1.947	-0.644246	0.979292	1.097328	1.702087
0.407174	1.37791	0.158206	2.50264	-0.945894	1.83596	-0.066221	2.163388	0.702623	2.082007	0.173755	2.062652	-1.186707	0.459368	0.746083	1.33473
0.578604	1.794935	0.4643	2.734025	-0.916491	1.936136	0.050234	2.269995	0.863018	2.239167	0.559491	2.270226	-0.832259	0.598974	0.878969	1.543558
0.364955	1.520091	0.14721	2.467175	-0.642252	2.153805	0.236977	2.455903	0.786989	2.241713	0.381962	2.168987	-0.58817	0.91101	1.053919	1.821162
0.523243	1.69819	0.333271	2.605618	-0.764255	1.983978	0.074981	2.280415	0.90352	2.428432	0.631369	2.280736	0.139637	1.364843	1.488513	2.464173
0.268015	1.193431	-0.135821	2.302673	-0.88582	1.901231	0.022033	2.237244	0.672364	2.153534	0.188732	2.072583	-0.73201	0.698777	0.879747	1.682127
0.615668	1.791704	0.424614	2.737302	-0.825907	1.909946	0.117704	2.394818	0.879467	2.431626	0.465222	2.394758	0.046655	1.310429	1.401173	2.400173
0.624755	1.753876	0.239393	2.663632	-0.735256	1.984309	0.20355	2.546144	0.92193	2.585143	0.574789	2.472612	-0.160307	1.079095	1.316038	2.428355
0.690001	1.708103	0.14721	2.662351	-0.677212	2.147575	0.250865	2.607499	1.232411	2.949007	0.870138	2.740973	-0.368785	1.098199	1.228753	2.483478
0.806997	1.947699	0.432501	2.855466	-0.614887	2.205187	0.304701	2.743011	0.83954	2.70852	0.497673	2.336238	-0.86584	0.69451	0.923943	2.277474
1.070875	2.19002	0.771656	3.189574	-0.367485	2.553338	0.541858	2.971392	0.799118	2.674573	0.417846	2.39541	-0.832259	0.828749	1.010381	2.494479
1.099588	2.280204	0.73043	3.22133	-0.305521	2.662301	0.494619	2.941715	0.966361	2.900193	0.840187	2.74118	-1.123842	0.622609	0.836369	2.258685
1.407586	2.515981	0.957029	3.458766	-0.398138	2.594413	0.385307	2.853004	0.807151	2.705049	0.667672	2.628077	-1.183206	0.598974	0.752263	2.195139
1.622347	2.719565	0.999935	3.52507	-0.213	2.842035	0.445082	2.999872	0.730631	2.623438	0.667672	2.647072	-0.790114	1.01015	1.096771	2.773896
1.757659	2.665874	1.039816	3.460446	-0.428831	2.565353	0.261776	2.877735	0.602802	2.527293	0.573516	2.613462	-0.49773	1.370365	1.615583	3.157693
2.018793	2.863089	1.071464	3.460446	-0.520756	2.418584	0.131277	2.863541	0.588939	2.537687	0.610442	2.587752	-0.41355	1.551532	1.795899	3.535154
2.255838	3.111046	1.122794	3.461464	-0.367593	2.675893	0.320946	3.105116	0.68408	2.667869	0.730226	2.654936	-0.779787	1.277376	1.576797	3.243926
2.387317	3.262258	1.122794	3.461943	-0.644124	2.427996	0.152692	2.989553	0.658415	2.711097	0.751425	2.572987	-0.447925	1.583329	1.836696	3.622981
2.149357	2.696639	0.595222	3.089371	-0.33662	2.743648	0.420244	3.254651	0.855716	3.007009	1.07615	2.774182	-0.724592	1.364843	1.706884	3.383178
2.694774	3.664104	1.308275	3.563556	-0.459729	2.575055	0.308215	3.222948	0.604818	2.764044	0.60844	2.287725	-1.425379	0.847653	1.359246	2.742552
2.428712	3.246464	0.77152	3.258842	-0.520953	2.618197	0.367439	3.314842	0.403956	2.54108	0.174677	1.982374	-0.676768	1.408058	1.881909	3.457895
2.071829	2.605978	0.254805	2.792865	-0.705674	2.471552	0.159372	3.122982	0.79349	2.991968	0.893504	2.539573	-1.068306	1.019754	1.580547	2.929744
2.292523	3.287622	0.64812	3.062435	-0.827057	2.306481	0.042586	3.007647	0.751526	2.894695	0.813558	2.381091	-0.683418	1.261455	1.928449	3.157693
2.133436	3.006447	0.419234	2.958323	-0.336917	2.807305	0.460199	3.445998	0.738396	2.929291	0.738228	2.394758	-1.439534	0.69451	1.40414	2.52299
2.246169	3.201932	0.564673	3.093032	-0.705345	2.44034	0.165979	3.192928	0.928679	3.064283	1.056957	2.735465	-1.264419	0.974669	1.582015	2.843935
2.203342	3.011244	0.355761	2.989448	-0.612638	2.555636	0.246653	3.25873	0.79349	2.894695	0.758606	2.543299	-1.21865	0.924712	1.538039	2.65772
2.467376	3.693744	0.926936	3.295553	-0.459455	2.749763	0.407636	3.328481	0.475731	2.493824	0.198744	2.198192	-0.224188	1.815528	2.287529	3.393489
1.985597	2.867156	0.138608	2.758632	-0.581925	2.577115	0.246653	3.180875	0.64041	2.629523	0.563189	2.299497	-1.166148	0.807027	1.536829	2.406253
2.432337	3.704419	0.792368	3.19717	-0.673702	2.394982	0.09522	3.021763	0.64041	2.562556	0.540611	2.241007	-0.838875	1.123875	1.75626	2.665986
2.242275	3.517235	0.625842	3.029343	-0.734389	2.31881	0.108354	2.90337	0.303866	2.123354	-0.093977	1.800304	-0.790114	1.123875	1.75626	2.65438
2.284967	3.558629	0.688637	3.031045	-0.917824	2.151638	-0.073507	2.72431	0.511705	2.310942	0.324951	2.061562	-0.74405	1.178455	1.75626	2.715392
1.820537	2.814945	0.044914	2.566618	-0.764804	2.256953	-0.007732	2.749009	0.782368	2.539163	0.841866	2.484186	-0.036424	1.655914	2.23966	3.095597
2.268848	3.74445	0.792368	3.06782	-0.825222	2.190619	-0.12986	2.607337	0.420804	2.084313	0.208175	1.979107	-0.884879	0.861275	1.534786	2.241076
2.018526	3.313978	0.604121	2.607978	-1.005342	2.102778	-0.17519	2.445289	0.383948	1.999533	0.499406	2.07358	-0.07602	1.62621	2.051427	3.081633
2.349115	4.208388	1.272894	2.782429	-0.943109	2.21684	-0.058061	2.552544	0.171839	1.653591	0.180354	1.66764	-1.062252	0.852221	1.358043	2.230192
2.133921	3.813608	0.91674	2.586304	-1.213088	1.962354	-0.307059	2.263032	0.348751	1.798332	0.431983	1.850448	-0.446088	1.359297	1.786895	2.633308
1.801974	3.438032	0.698094	2.333086	-1.302431	1.813327	-0.455312	2.135121	0.514914	1.913361	0.58037	2.117772	-0.401979	1.424945	1.744419	2.705541
1.572137	3.038338	0.355761	2.173966	-1.213088	1.87887	-0.431216	2.156552	0.495224	1.817393	0.454425	1.958331	-0.976711	0.965341	1.227129	2.170002
1.626351	3.357919	0.514433	2.245693	-1.273274	1.848194	-0.479392	2.025882	0.532784	1.904662	0.553997	2.019221	-0.490063	1.299479	1.523939	2.598075
1.592635	3.364753	0.55547	2.27732	-1.212037	1.831191	-0.468805	2.009132	0.426935	1.707139	0.375828	1.75274	-1.04521	0.873271	1.180683	2.261943
1.604552	3.407499	0.52501	2.278378	-1.390203	1.648312	-0.636572	1.8551	0.468089	1.734671	0.373878	1.708677	-1.090456	0.770807	1.094915	2.250801
1.56699	3.467774	0.421758	2.21296	-1.330313	1.783671	-0.502822	1.971114	0.455929	1.868313	0.691259	2.132903	-0.951979	0.93184	1.180683	2.27308
1.357508	3.172747	0.299071	2.084181	-1.572611	1.550823	-0.70282	1.754977	0.570448	1.990787	0.657821	2.215317	-1.450671	0.544972	0.795475	1.831333
1.335899	3.140678	0.366946	2.172662	-1.06455	2.041437	-0.338136	2.09333	0.622423	1.956681	0.516102	2.275765	-0.65944	1.188505	1.269317	2.388969
1.315436	2.743759	0.109115	2.014108	-1.004122	2.258219	-0.213618	2.139406	0.704125	1.909013	0.674963	2.369736	-0.441555	1.484987	1.444816	2.788323
1.31173	2.969481	0.462747	2.21296	-1.151562	2.147125	-0.345075	1.974466	0.313601	1.382356	0.160719	2.062652	-0.822416	1.222828	1.227129	2.384122
0.886458	2.398224	-0.048857	1.824766	-1.29462	2.071162	-0.472343	1.708911	0.276706	1.223022	0.285112	2.253326	-0.942801	1.203379	1.053015	2.279489
0.87342	2.948898	0.503784	2.09041	-1.204788	2.104811	-0.496902	1.697032	-0.019702	0.771293	-0.082577	1.918386	-0.890653	1.308532	1.053015	2.449362
0.299347	2.090684	-0.083428	1.679547	-1.794202	1.597468	-0.952147	1.145397	0.128165	0.826506	0.187219	2.025944	-0.541635	1.589185	1.305282	2.718352
0.231933	2.362719	0.113783	1.715369	-1.497978	1.827163	-0.756017	1.246067	0.201235	0.890584	0.167077	2.097275	-1.056386	1.173391	0.923549	2.224425
-0.186635	1.474224	-0.540399	1.340492	-1.969172	1.318513	-1.108786	0.883919	-0.017545	0.659793	-0.181466	1.746274	-1.025578	1.188505	0.966648	2.366545
0.115035	2.269656	0.032411	1.626943	-1.844885	1.394444	-1.013265	0.946534	-0.106721	0.501846	-0.437533	1.614946	-1.079778	1.083307	0.836467	2.136017
0.056873	2.129029	-0.089301	1.537485	-1.760468	1.440471	-0.977305	1.025371	-0.102296	0.547479	-0.281993	1.787291	-1.354631	0.878081	0.75323	2.180265
0.128802	2.213354	-0.014796	1.600648	-1.909344	1.299024	-1.054666	0.893425	-0.081127	0.619295	-0.170323	1.800304	-1.225854	0.990625	0.795938	2.164739
-0.171758	1.61028	-0.463898	1.344224	-1.910278	1.21344	-1.058338	0.893425	0.027025	0.736393	-0.021339	1.82896	-1.699128	0.524858	0.331609	1.652074
0.066131	2.163887	0.128651	1.811605	-1.73523	1.414583	-0.883669	0.99905	0.044031	0.691038	-0.03058	1.883014	-1.402456	0.55722	0.417988	1.543405
-0.420695	1.23846	-0.688563	1.272984	-1.532286	1.628817	-0.823785	1.045899	0.135355	0.725427	0.136809	1.949532	-1.175122	0.819674	0.543468	1.756913
-0.292966	1.690203	-0.182276	1.62999	-1.824136	1.313097	-1.020426	0.792795	-0.030192	0.475998	-0.171909	1.759133	-0.942164	1.019237	0.668925	2.018316
-0.472919	1.368159	-0.444886	1.441853	-1.8199	1.234017	-1.022383	0.721446	0.058618	0.517394	-0.042714	1.796716	-1.870177	0.09197	-0.083725	1.097898
-0.447141	1.597538	-0.313612	1.534278	-1.967194	1.068211	-1.141921	0.580902	0.010036	0.439539	-0.129694	1.65517	-1.639517	0.344902	0.083707	1.359026
-0.738739	1.187316	-0.63979	1.221362	-1.876075	1.184841	-1.070961	0.576402	-0.0154	0.391186	-0.217227	1.588979	-1.684198	0.29202	0.000824	1.291468
-0.891464	1.001773	-0.774449	1.102989	-1.87775	1.12599	-1.143676	0.508121	-0.004851	0.344613	-0.143779	1.461421	-1.725156	0.126402	-0.080984	1.109134
-0.784002	0.910108	-0.853481	1.108934	-1.788662	1.17697	-1.117113	0.545378	-0.040835	0.305065	-0.083157	1.449283	-2.056354	-0.177222	-0.457179	0.69555
-0.880673	1.000205	-0.722883	1.112793	-1.992231	0.971753	-1.301131	0.366684	-0.002776	0.366918	-0.120287	1.486358	-1.495119	0.276101	0.085685	1.262567
-0.803969	0.998512	-0.777993	1.05788	-2.108217	0.855013	-1.392786	0.30147	-0.148195	0.234893	-0.32387	1.229136	-1.687857	0.12264	0.000824	1.166611
-0.839619	0.907184	-0.817356	1.05788	-1.961651	1.018785	-1.221631	0.522661	-0.164923	0.186957	-0.505645	1.007334	-2.09645	-0.186954	-0.331225	0.889121
-0.636417	1.275091	-0.615859	1.204038	-2.020059	1.055713	-1.175716	0.55637	-0.353003	0.117095	-0.723905	0.938213	-1.5398	0.316211	0.127054	1.405735
-0.534298	1.633659	-0.268467	1.425843	-2.290055	0.770669	-1.42263	0.479656	-0.110382	0.424038	-0.292355	1.320912	-1.522795	0.450903	0.247753	1.426856
-0.841264	0.913052	-0.850658	1.072496	-2.459344	0.624684	-1.464785	0.459352	-0.156867	0.382419	-0.325976	1.2798	-1.854747	0.16337	0.04298	1.138235
-0.66704	1.270311	-0.421756	1.293753	-2.460769	0.660696	-1.376596	0.490101	0.195591	0.744529	0.355479	1.705168	-1.357663	0.627202	0.501663	1.636575
-0.816095	0.911382	-0.743761	1.09892	-1.908426	1.170989	-0.992191	0.801896	0.130131	0.562205	0.171234	1.608172	-1.988851	0.141159	-0.005573	1.146447
-0.447141	1.719902	0.171814	1.543656	-2.200012	0.825647	-1.241825	0.487495	0.039499	0.380807	0.006862	1.4894	-0.765651	1.105277	0.879681	2.091689
-0.991505	0.59471	-0.740974	0.944259	-1.8199	1.188769	-0.825993	0.713045	-0.087176	0.084527	-0.221072	1.287347	-1.373517	0.548532	0.416479	1.4653
-0.539328	1.489355	0.080583	1.334443	-2.174822	0.74493	-1.156468	0.243817	0.126188	0.192333	0.173289	1.530119	-1.858413	0.201321	0.160898	1.213691
-0.991505	0.459195	-0.82089	0.676056	-1.8199	1.004791	-0.875945	0.431938	-0.252421	-0.400978	-0.68655	0.938213	-1.338293	0.55722	0.499912	1.523432
-0.523821	1.082799	-0.20487	1.059768	-2.056996	0.792813	-1.03656	0.188674	0.164651	0.048254	0.203281	1.555073	-1.710844	0.197657	0.202899	1.097898
-0.616909	0.683045	-0.504013	0.868482	-1.93734	0.840456	-0.939781	0.243458	0.309821	0.156656	0.327455	1.765056	-0.596124	1.239885	1.051358	2.124942
-0.13081	1.534948	0.16913	1.363273	-1.792539	1.041703	-0.749261	0.395908	-0.01605	-0.129359	-0.289979	1.562766	-1.065255	0.882865	0.711487	1.677821
-0.514328	0.774196	-0.580605	0.857541	-1.678509	1.145339	-0.715806	0.406623	0.223644	0.186957	0.130295	1.901947	-1.454484	0.532992	0.329201	1.194892
-0.020077	1.628188	0.280056	1.511441	-1.563671	1.275469	-0.651874	0.522661	0.454564	0.555005	0.548358	2.189645	-1.22564	0.690215	0.372569	1.291468
-0.410964	0.774676	-0.443883	1.092656	-1.535012	1.406542	-0.533627	0.630759	0.310326	0.35305	-0.004908	1.911991	-1.595127	0.318765	0.038972	0.832011
-0.264521	1.040933	-0.100822	1.346059	-1.687966	1.310733	-0.723392	0.530867	0.600648	0.696031	0.625858	2.266716	-0.409519	1.396684	0.835651	1.804588
-0.368944	0.817639	-0.36288	1.246169	-1.567486	1.392649	-0.641867	0.608013	0.578886	0.666276	0.544517	2.215317	-0.933747	0.882865	0.335459	1.214207
-0.607558	0.679801	-0.395449	1.13151	-1.298019	1.693628	-0.408566	0.741255	0.353652	0.342829	0.023836	1.924695	-1.821937	0.1024	-0.40824	0.401666
-0.846987	0.191363	-0.751278	0.876527	-1.594537	1.402514	-0.675476	0.444493	0.373233	0.365291	0.121833	1.950257	-1.450671	0.459164	-0.24072	0.713164
-0.633114	0.635176	-0.326713	1.166003	-1.476162	1.569462	-0.594638	0.475602	0.159098	0.071967	-0.243204	1.667023	-0.825555	0.902115	0.172531	1.146128
-0.782122	0.324352	-0.447738	1.017767	-1.588185	1.332393	-0.739252	0.266608	0.350597	0.265625	0.178171	1.926318	-1.768205	0.186488	-0.564588	0.415654
-0.529373	0.947742	-0.124091	1.025711	-1.8514	1.108152	-0.925914	0.089436	0.167719	0.06361	0.110782	1.77392	-1.286393	0.530833	-0.235182	0.818343
-0.622279	0.814799	-0.269652	0.912947	-1.79094	1.188769	-0.892455	0.120427	0.150506	-0.022211	0.006862	1.673717	-1.702984	0.175057	-0.439006	0.509994
-0.80184	0.679801	-0.459853	0.675554	-2.137992	0.836822	-1.170271	-0.148194	-0.040921	-0.245398	-0.233162	1.39659	-1.792738	0.11503	-0.519644	0.557015
-0.960881	0.547354	-0.524703	0.551951	-2.369541	0.610986	-1.388345	-0.339665	-0.28285	-0.483549	-0.718	1.070271	-1.858413	0.130135	-0.604975	0.535914
-0.999443	0.590069	-0.540399	0.531267	-2.018216	0.956626	-1.1332	-0.075999	-0.146828	-0.320577	-0.441821	1.331108	-1.408832	0.504022	-0.364041	0.835079
-0.896906	0.89987	-0.239311	0.717732	-2.248119	0.698925	-1.320456	-0.223573	-0.115716	-0.242524	-0.578145	1.2798	-1.415271	0.360032	-0.355673	0.706536
-1.060351	0.681007	-0.552683	0.558712	-2.451154	0.542755	-1.449677	-0.320274	-0.049717	-0.141471	-0.325976	1.44551	-1.665769	0.219634	-0.520725	0.565766
-1.272713	0.36902	-0.740974	0.378609	-2.338439	0.658643	-1.262398	-0.121312	0.118669	0.122422	-0.047406	1.727539	-1.056386	0.775963	-0.113471	1.033439
-1.278562	0.413645	-0.806141	0.37134	-2.396797	0.66214	-1.296337	-0.130801	0.233899	0.240046	0.154213	1.837317	-0.999906	0.660757	-0.070667	1.060705
-1.164734	0.723042	-0.4357	0.618151	-2.344849	0.734396	-1.261251	-0.076891	0.268628	0.30161	0.167003	1.907625	-1.463611	0.455783	-0.435351	0.753263
-1.266897	0.502395	-0.459853	0.586211	-2.165603	0.804033	-1.10806	0.042697	0.245105	0.279393	0.083589	1.885583	-1.821733	-0.004219	-0.635701	0.326374
-1.183663	0.631905	-0.239311	0.743454	-2.42937	0.614419	-1.218682	-0.116027	0.266579	0.205866	0.05973	1.932969	-1.706889	0.16337	-0.641476	0.527286
-1.159091	0.633959	-0.274425	0.709582	-2.404918	0.628095	-1.163845	-0.106248	0.02219	-0.116327	-0.454346	1.598141	-1.912259	-0.027117	-0.687002	0.409965
-1.238298	0.367353	-0.504013	0.533483	-2.080515	0.924484	-0.916441	0.102437	0.028868	-0.154228	-0.357165	1.510579	-1.809115	0.118849	-0.562178	0.618023
-1.321455	0.28029	-0.512387	0.460386	-2.317478	0.737913	-1.027654	-0.057114	0.14427	-0.018002	-0.058959	1.724354	-1.76404	0.066585	-0.563367	0.62669
-1.28552	0.412218	-0.395449	0.52903	-2.373507	0.676073	-1.105065	-0.103812	0.061053	-0.173051	-0.129694	1.692844	-1.740115	0.099474	-0.558799	0.648072
-1.375842	0.235649	-0.584108	0.383349	-2.582834	0.521551	-1.194049	-0.2175	0.099437	-0.112988	-0.120765	1.759133	-1.792738	0.103405	-0.519644	0.665644
-1.279775	0.411838	-0.400042	0.476536	-2.376237	0.712203	-1.042319	-0.067079	-0.007165	-0.211085	-0.302691	1.664528	-1.425379	0.355695	-0.277183	0.996003
-1.363341	0.324672	-0.540399	0.465105	-2.32015	0.807039	-0.955812	0.056533	0.131254	-0.043364	0.028336	1.869126	-0.772519	0.955858	0.295349	1.736278
-1.44777	0.191978	-0.648538	0.373784	-2.260001	0.917252	-0.877971	0.170956	-0.153595	-0.328262	-0.563802	1.513589	-1.059295	0.76095	0.089979	1.547994
-1.573915	-0.028826	-0.886146	0.282515	-2.311098	0.752937	-0.957496	0.121097	-0.096738	-0.214902	-0.454346	1.683136	-1.450382	0.432828	-0.192872	1.185082
-1.513878	0.236112	-0.633138	0.428264	-2.425318	0.69471	-1.027654	0.078881	0.016309	-0.094021	-0.180491	1.924098	-1.411997	0.532007	-0.234512	1.137961
-1.657638	-0.028826	-0.926081	0.312099	-2.424001	0.69471	-1.024031	0.059009	0.187025	0.234893	0.164719	2.12808	-1.192644	0.698407	0.008657	1.443197
-1.615533	0.016745	-0.798733	0.356201	-2.687238	0.421303	-1.326206	-0.169897	0.058912	0.033422	-0.049879	1.949532	-1.40877	0.376354	-0.234512	1.137961
-1.567815	0.104075	-0.716191	0.467433	-2.649691	0.462746	-1.256751	-0.186047	-0.045295	-0.125725	-0.261272	1.844671	-1.601923	0.230081	-0.235883	1.043422
-1.829054	-0.417428	-1.100393	0.140221	-2.654183	0.382643	-1.380262	-0.272479	0.052436	-0.049841	0.019179	2.020921	-1.085028	0.673072	0.172681	1.423057
-1.847519	-0.419434	-1.099196	0.161788	-2.625821	0.411533	-1.349416	-0.303656	0.126188	-0.072631	0.110782	2.101535	-1.814128	0.11843	-0.316094	0.882599
-1.520453	0.147137	-0.536299	0.535679	-2.426651	0.672598	-1.229805	-0.177914	0.191747	-0.003626	0.245216	2.18112	-1.658022	0.242948	-0.199035	1.042484
-1.484105	0.147955	-0.636275	0.492463	-2.456546	0.676073	-1.183382	-0.170859	0.212966	0.050193	0.353558	2.170452	-2.355473	-0.310172	-0.529173	0.669828
-1.531852	0.015498	-0.753483	0.482954	-2.167807	1.019913	-0.923445	0.126135	0.255442	0.161673	0.377762	2.231934	-2.23643	-0.100381	-0.369785	0.801301
-1.297106	0.280451	-0.459853	0.660033	-1.874464	1.261267	-0.672275	0.480796	0.164651	0.156656	0.160719	2.239102	-1.348638	0.560541	0.293369	1.455395
-1.284444	0.280227	-0.617826	0.710936	-2.085886	1.156889	-0.773201	0.506888	0.193185	0.35152	0.057352	2.227004	-1.159668	0.813599	0.54351	1.609389
-0.974541	0.863461	-0.229035	1.046118	-1.85411	1.436423	-0.516545	0.848168	0.385874	0.677278	0.404187	2.591345	-1.071405	0.87667	0.669066	1.677821
-0.980163	0.774196	-0.257689	1.011589	-2.008053	1.356304	-0.669916	0.870039	0.586732	1.014454	0.765528	2.805541	-1.183206	0.998484	0.796082	1.874227
-0.745779	1.186408	0.044914	1.340492	-1.865333	1.557222	-0.564769	1.113015	0.452211	0.887033	0.416492	2.643191	-1.120379	0.987965	0.711311	1.736144
-0.824151	1.005716	-0.142706	1.303846	-1.74485	1.722867	-0.382988	1.329876	0.71107	1.319845	0.918557	3.143688	-1.09102	1.014085	0.838597	1.825991
-0.576508	1.423496	0.227477	1.579293	-1.358169	2.110866	-0.153455	1.604299	0.514914	1.026928	0.599368	2.919505	-0.51999	1.529618	1.219088	2.183842
-0.613029	1.332231	-0.002532	1.513297	-1.480449	2.04574	-0.276951	1.419209	0.667796	1.125271	0.835053	3.168618	-1.578916	0.619235	0.456451	1.183578
-0.295843	1.937794	0.540491	1.89086	-1.182748	2.323496	-0.132521	1.604299	0.399627	0.77004	0.316177	2.797268	-0.667558	1.445129	1.094062	2.002689
-0.379615	1.665734	0.305191	1.851375	-1.001833	2.557498	0.054756	1.725085	0.391719	0.7546	0.251745	2.793868	-0.333206	1.710957	1.306873	2.158152
-0.122697	2.136644	0.685195	2.076036	-1.452353	2.098794	-0.379613	1.347645	0.493947	0.772716	0.339225	2.975845	0.242248	2.224842	1.645354	2.575146
-0.201408	1.859457	0.430459	1.973204	-1.244059	2.382687	-0.163041	1.518007	0.604457	0.898031	0.480133	3.105088	0.33447	2.294345	1.774705	2.694221
0.098887	2.47705	0.853103	2.200508	-0.792992	2.92746	0.239826	1.841462	0.778819	1.11114	0.778169	3.395539	0.283385	2.364205	1.692403	2.598877
-0.180353	1.959154	0.335116	1.906321	-1.277934	2.437392	-0.200255	1.464784	0.849611	1.152846	0.955197	3.454811	0.37968	2.419718	1.732942	2.587013
0.103788	2.332327	0.685195	2.169993	-1.06597	2.647633	7.1E-05	1.650918	0.626206	0.901749	0.513589	3.20788	-0.151534	2.004612	1.349783	2.206181
-0.043135	2.100622	0.48387	2.005	-1.182256	2.461999	-0.105247	1.538801	0.829488	1.103376	0.903114	3.580454	-0.194522	2.053162	1.264015	2.147087
0.235671	2.67093	0.958791	2.395828	-1.065007	2.637836	0.027479	1.705664	0.775223	1.153437	0.805181	3.588556	-0.620954	1.62621	0.880588	1.736144
0.098887	2.435123	0.727098	2.200508	-1.004919	2.700728	0.076081	1.757315	0.707802	1.034707	0.63697	3.493387	-1.144197	1.256099	0.542846	1.359026
0.045321	2.378382	0.665468	2.139542	-1.185455	2.490612	-0.051646	1.691186	0.46626	0.794332	0.184069	3.109087	-0.67321	1.62621	0.838014	1.805045
-0.164587	1.811732	0.251653	1.906321	-1.397607	2.343509	-0.203569	1.480174	0.647968	0.992887	0.51577	3.387086	-1.386374	1.049629	0.332623	1.262241
0.033195	2.222058	0.770659	2.237529	-1.27389	2.373304	-0.183941	1.500328	0.628079	0.932072	0.51139	3.440803	-1.340251	1.054606	0.248375	1.165036
-0.123964	1.801034	0.434804	2.107775	-1.39225	2.244464	-0.25292	1.344597	0.357846	0.568248	-0.038865	3.002453	-1.062255	1.321283	0.416841	1.446411
-0.051454	2.123009	0.801686	2.333086	-1.453135	2.218057	-0.273692	1.196076	0.545034	0.717353	0.442263	3.308265	-0.969107	1.370365	0.458794	1.494961
-0.363714	1.516766	0.393242	2.044325	-1.362543	2.270839	-0.318399	1.160583	0.543131	0.638466	0.457874	3.365905	-0.585297	1.735788	0.669313	1.718945
-0.400427	1.507915	0.355761	2.016976	-1.603158	2.072326	-0.472026	0.975033	0.684195	0.766846	0.770752	3.545152	-0.480774	1.826607	0.794782	1.911684
-0.498113	1.372805	0.415951	2.080201	-1.542979	2.19162	-0.444718	0.940244	0.574147	0.557637	0.468892	3.318032	-0.452404	1.809355	0.711532	1.857354
-0.323854	1.87433	0.750382	2.275144	-1.21105	2.433246	-0.17652	1.075033	0.658955	0.625091	0.468892	3.367032	0.043317	2.253438	1.04521	2.183842
-0.523821	1.464235	0.374534	2.111856	-1.213638	2.399711	-0.267225	0.967005	0.895014	0.852938	0.827982	3.652265	-0.394459	1.839358	0.627071	1.688114
-0.093192	2.337968	1.156911	2.659759	-0.944034	2.80654	0.003519	1.092437	0.824296	0.789353	0.7938	3.737689	-0.461059	1.877106	0.627262	1.729206
-0.302693	1.928716	0.781363	2.432008	-0.793173	2.959031	0.060636	1.197135	0.893335	0.886794	1.115675	3.963734	0.27473	2.505011	1.172657	2.336023
-0.354716	1.827786	0.688637	2.372368	-1.004512	2.753696	-0.144022	0.999106	0.653513	0.520944	0.620783	3.670168	0.464063	2.801699	1.301773	2.730303
-0.231109	1.922923	0.791993	2.433004	-0.914943	2.890069	-0.002525	1.139194	0.879816	0.755631	1.069804	3.989776	-0.02628	2.436152	1.006581	2.306457
-0.214535	2.071693	0.801686	2.398018	-0.883314	2.859259	-0.014584	0.981447	0.71876	0.536235	0.645534	3.737704	0.366087	2.817261	1.343381	2.826839
-0.51939	1.924882	0.885443	1.96753	-1.32705	2.685838	-0.411768	0.672674	0.164656	0.095676	0.567121	3.665707	-0.461995	2.456356	0.997835	2.705541
-0.434183	1.88368	1.137899	1.728268	-1.554154	2.476323	-0.682665	0.462673	-0.614569	-0.504297	0.066763	3.372873	-0.977896	2.046437	0.617387	2.153807
-0.488106	1.68329	1.191305	1.767875	-1.69814	2.446771	-0.895831	0.36752	-0.841354	-0.797471	0.171234	3.5172	-1.277613	1.984693	0.491448	2.002689
-0.551291	1.546692	0.99026	1.793802	-2.098633	2.294708	-1.147202	0.289294	-1.3282	-1.446463	-0.477515	3.066464	-1.34296	2.099675	0.333779	1.899061
-0.593342	1.733106	1.180149	2.10139	-2.007084	2.478175	-1.047862	0.428672	-1.264244	-1.463953	-0.249202	3.422429	-1.027387	2.534423	0.41327	1.986275
-0.657458	1.603503	1.15936	2.285243	-1.946165	2.942309	-0.753407	0.799068	-1.178344	-1.358016	0.12554	3.860003	-1.240732	2.365788	0.289359	1.698399
-0.660648	1.870391	1.431849	2.444192	-2.61598	2.537974	-1.1597	0.528724	-1.45658	-1.584952	-0.300638	3.827801	-1.412446	2.654776	0.168174	1.777651
-0.580216	1.836831	1.286713	2.31578	-2.611003	2.720615	-1.205704	0.694122	-1.584001	-1.440194	-0.332655	3.900753	-2.015055	2.253438	-0.15548	1.375838
-0.36296	1.872375	1.399345	2.385667	-2.696794	2.681733	-1.266014	0.835651	-1.505834	-0.954801	-0.204846	4.19142	-2.838248	1.583701	-0.692282	0.771518
-0.155099	2.073723	1.487237	2.320067	-2.471969	2.964478	-1.01888	1.234995	-1.661997	-1.137686	-0.501038	3.946431	-2.947328	1.685794	-0.768491	0.753263
-0.225242	2.112402	1.45127	2.322415	-2.856143	2.691395	-1.249254	1.21715	-1.738144	-1.102894	-0.464926	4.01492	-2.758284	2.025469	-0.582644	0.92014
-0.614345	1.794935	1.158493	2.348983	-2.932397	2.774533	-1.202891	1.27129	-1.943635	-1.441039	-0.895168	3.741664	-2.977734	1.800859	-0.842962	0.521897
-0.790875	1.788353	1.240767	2.443445	-2.936934	2.798099	-1.225411	1.315018	-1.603746	-1.252441	-0.440991	4.071024	-2.663256	2.143013	-0.729635	0.577323
-0.865837	2.063286	1.282768	2.60017	-2.822473	2.931959	-1.090355	1.322821	-1.503317	-1.374803	-0.455155	4.08023	-2.800515	1.942908	-0.843081	0.521897
-1.128396	1.608986	0.873366	2.095035	-2.926041	2.884906	-1.195523	1.257412	-1.516083	-1.3458	-0.393335	4.191808	-2.72966	2.04645	-0.654783	0.799657
-0.589021	2.437637	1.605419	2.355783	-2.98788	2.825915	-1.28373	1.17402	-1.424241	-1.180348	-0.212733	4.3221	-3.246768	1.60647	-0.955207	0.376687
-0.349593	2.226237	1.546914	2.132548	-2.548947	3.185593	-0.963106	1.525361	-1.484188	-1.21892	-0.541228	4.060963	-2.519328	2.34622	-0.362781	1.230356
0.187366	2.87567	2.11937	2.418844	-2.47367	3.202868	-0.979321	1.5883	-1.440138	-1.068942	-0.556713	4.046533	-3.262539	1.741791	-0.88077	0.661207
0.140067	2.518384	1.678945	2.128497	-2.44511	3.164785	-0.912399	1.693182	-1.476145	-1.129718	-0.686797	3.924286	-3.170077	1.668332	-0.657534	0.845617
0.360565	3.147392	1.929164	2.567768	-2.65027	2.905687	-1.068298	1.565523	-0.969875	-0.680748	0.058304	4.468435	-3.359767	1.48666	-0.805268	0.559526
0.201817	3.265524	1.787447	2.689597	-1.972291	3.547897	-0.512958	2.096129	-1.050935	-0.925126	-0.447109	4.116253	-2.252796	2.53306	0.030741	1.686181
0.094838	3.160285	1.611049	2.752389	-2.236943	3.171035	-0.73948	1.881163	-0.327996	-0.154565	0.753849	4.977186	-2.242988	2.556118	0.159702	1.793848
0.113351	3.374804	1.720745	3.104379	-1.578925	3.838097	-0.190415	2.369463	-0.072467	0.034953	0.984357	5.188418	-2.481441	2.337431	0.047962	1.531104
0.333474	3.869153	2.056427	3.532427	-1.614243	3.757804	-0.227263	2.307028	-0.250017	-0.135161	0.530556	4.873582	-2.277611	2.519753	0.209443	1.639982
0.317692	3.783879	2.002888	3.531044	-0.96998	4.347697	0.262256	2.735495	0.348576	0.3938	1.50759	5.633629	-2.325666	2.435306	0.294842	1.712059
0.075267	3.196327	1.515043	3.327048	-0.762622	4.544108	0.348565	2.790783	0.424895	0.382191	1.445193	5.598197	-1.775699	3.032865	0.872859	2.52838
0.56343	3.955867	2.193449	3.933505	-0.400698	4.873179	0.634151	3.065592	0.434239	0.248426	1.18204	5.467728	-1.245815	3.509838	1.252413	2.983156
0.625914	4.026661	2.208175	3.966806	-0.00261	5.132857	0.850893	3.279101	0.445465	0.375579	1.331274	5.636412	-0.525191	4.225501	1.809995	3.622981
1.232946	4.862309	2.709585	4.450534	0.124206	5.068836	0.985793	3.268691	0.987946	0.962451	1.785121	6.077916	0.531987	4.966698	2.602487	4.355305
1.384591	4.80468	2.607354	4.451899	0.256571	4.924932	1.108106	3.224744	1.655938	1.614541	2.677797	6.685011	1.052594	5.185571	2.890413	4.529041
1.784135	5.370561	3.136528	4.806693	1.19119	5.69638	1.840846	3.847252	2.269678	2.020038	2.954861	6.832077	1.929853	5.7623	3.486149	5.005453
2.453413	5.41257	3.331405	5.024037	1.608202	5.767653	2.118737	4.021127	3.192081	2.935146	4.098309	7.688939	1.6422	5.52194	3.213825	4.734119
2.929145	6.014781	3.873446	5.386703	2.070151	6.06131	2.460582	4.158705	3.312065	2.950363	4.006909	7.516349	2.611332	6.207749	3.906076	5.364136
3.205514	6.146183	4.093673	5.534614	2.048709	5.841705	2.348348	3.824609	3.108229	2.677604	3.396494	7.049802	2.60712	6.104922	3.754819	5.165657
3.418663	6.623699	4.355519	5.75193	2.444967	6.000987	2.526654	3.946847	3.210495	2.802277	3.703156	7.161031	1.793974	5.330399	3.167462	4.371853
3.049918	5.958657	3.723787	5.278801	2.079124	5.60266	2.207256	3.53036	3.091607	2.753855	3.674008	7.064517	2.046591	5.56845	3.336465	4.734497
2.990965	5.928035	3.702442	5.276152	2.116557	5.573768	2.105261	3.408344	2.855198	2.53441	3.256499	6.839399	1.793617	5.430291	3.198096	4.638766
2.688293	5.305309	3.21872	5.057126	1.84892	5.32258	1.793076	3.235026	3.102628	2.990703	3.884847	7.260319	1.093157	4.804665	2.740697	4.036785
2.589657	5.44658	3.199274	5.092438	2.068316	5.545536	1.866402	3.380516	2.886004	2.963943	3.377494	6.944568	1.392647	5.196763	3.049987	4.434685
2.435929	5.167352	2.851411	4.988669	1.733207	5.260895	1.690958	3.298369	2.690909	2.970626	3.105541	6.839399	1.888862	5.614411	3.397905	4.785957
2.460187	5.392249	3.05358	5.165655	1.866873	5.43853	1.719195	3.380516	2.720056	3.09493	3.229932	6.975087	1.64217	5.486359	3.181485	4.571077
2.183268	5.078121	2.798423	5.023186	2.088557	5.644982	1.866073	3.572022	2.557327	2.88265	2.995187	6.80927	0.942719	4.783859	2.645874	3.917897
2.132432	5.04743	2.790495	4.950026	1.926922	5.481394	1.706736	3.360264	2.707994	3.003887	3.322283	6.983483	1.238563	5.053602	2.827206	4.203402
1.934921	4.824372	2.799679	4.877262	1.627432	5.149322	1.400749	3.023372	2.400534	2.595017	2.854604	6.621735	0.643975	4.476171	2.282706	3.522281
2.085043	5.063496	3.170996	4.982701	1.725393	5.128922	1.407879	2.852785	2.256632	2.271114	2.615277	6.354957	1.243211	4.926729	2.62868	4.027439
1.470383	4.034303	2.356807	4.311352	1.750297	5.08128	1.423942	2.651641	2.197874	1.934637	2.566688	6.143359	1.137516	4.856232	2.415088	3.904341
1.735169	4.513805	2.862844	4.626191	1.260024	4.637875	1.040078	2.125614	2.345741	1.922041	3.034516	6.39106	1.492148	5.090092	2.490425	3.999668
1.464733	3.955867	2.655268	4.27698	1.388299	4.749764	1.125439	1.982553	2.247723	1.750239	2.914356	6.282381	1.98787	5.430248	2.868412	4.330118
1.479953	4.186561	2.87175	4.415282	1.668958	4.896394	1.219362	1.898358	2.277414	1.594421	3.091089	6.26052	1.592211	5.140726	2.530516	3.971908
1.60769	4.191542	2.93208	4.515698	1.375483	4.62292	1.017129	1.603602	2.134476	1.491819	2.769117	6.051571	1.940364	5.318759	2.737865	4.217857
1.443298	3.885769	2.665494	4.275439	1.529899	4.77372	1.126159	1.757604	2.210379	1.599297	3.034219	6.228433	1.541571	4.928985	2.470264	3.749948
1.17801	3.30502	2.046693	3.86509	1.238814	4.522879	0.877741	1.536129	1.862845	1.434231	2.79929	6.091255	1.393424	4.87925	2.340701	3.714717
1.189394	3.488299	2.172527	3.933596	1.167403	4.530969	0.810942	1.469208	1.786178	1.41395	2.92055	6.109201	1.826944	5.106241	2.614305	3.935583
0.793192	2.960824	1.891618	3.661739	0.945274	4.375268	0.614259	1.297055	1.556389	1.132399	2.427051	5.86294	1.392275	4.960275	2.317926	3.729946
0.789601	3.325894	2.175053	3.798767	0.774883	4.206357	0.517676	1.130145	1.497571	0.917506	2.29145	5.727895	1.391591	4.758257	2.183592	3.57954
0.426515	2.714376	1.534923	3.292971	0.277993	3.756117	0.123127	0.693931	1.428983	0.809863	2.203756	5.596565	0.762253	4.294566	1.671861	3.152453
0.531887	3.058081	1.986356	3.465644	0.305875	3.798491	0.158238	0.644643	1.364937	0.683608	1.98192	5.481524	1.148966	4.69867	1.887012	3.395877
0.102009	2.365043	1.404319	3.032665	0.303334	3.775101	0.118473	0.559935	1.354289	0.590469	2.134569	5.501797	1.149107	4.665838	1.881293	3.356322
0.209299	2.686778	1.743618	3.23372	0.086285	3.568366	-0.045803	0.352012	1.261255	0.470829	1.931731	5.327581	0.280676	3.884297	1.209235	2.57457
0.230784	2.668951	1.918791	3.23641	-0.218595	3.256438	-0.312638	0.066496	1.332122	0.502877	2.076191	5.383097	1.004613	4.504474	1.663363	3.088595
-0.097789	2.159436	1.506883	2.941728	-0.188621	3.3799	-0.312638	0.082993	1.153739	0.246652	1.683134	5.108314	1.052589	4.632954	1.792311	3.329963
0.022019	2.423906	1.733227	3.010285	-0.372497	3.165475	-0.41848	-0.101856	0.797105	-0.10047	1.154698	4.641513	0.32965	3.865142	1.167184	2.670526
-0.155102	2.063286	1.464433	2.910558	-0.284453	3.330284	-0.168357	0.129418	0.851317	-0.113869	1.11896	4.56163	0.185543	3.749161	1.165153	2.670526
-0.299931	1.876257	1.379682	2.781672	-0.135015	3.549326	0.039288	0.343445	1.070338	0.217929	1.665551	4.935867	0.718813	4.160771	1.486573	2.977841
-0.053131	2.687505	1.980716	3.142283	-0.523762	3.218695	-0.191226	0.211735	0.869762	0.08138	1.305905	4.52384	0.041582	3.548479	1.082326	2.57457
-0.646561	1.464235	0.812415	2.389998	0.014498	3.704725	0.339573	0.817601	0.832893	0.293421	1.198667	4.334889	0.337642	3.682825	1.2849	2.981087
-0.220001	2.556093	1.651892	2.946541	-0.370724	3.461162	0.13974	0.926445	0.302072	0.263373	0.942434	4.160661	1.001369	4.139029	1.774422	3.485099
-0.564947	2.069633	1.115057	2.584299	-0.464566	3.437659	0.123127	0.953644	0.288475	0.263373	1.127377	4.338244	0.580067	3.876932	1.568544	3.235023
-0.554926	2.018519	1.144846	2.586304	-0.642625	3.218916	-0.110741	0.727298	0.590226	0.45671	1.404654	4.63325	0.156095	3.541051	1.326754	2.935405
-0.395438	2.217763	1.262949	2.807473	-0.612092	3.272567	-0.068769	0.687607	1.204244	1.11172	2.419632	5.427134	-0.033617	3.503495	1.370056	3.117198
-0.271724	2.123009	1.305099	2.905387	-0.007538	3.879135	0.399697	1.083535	1.016985	0.838139	1.800896	5.102018	0.004361	3.550184	1.333258	3.045756
-0.311648	1.996904	1.26593	2.864343	0.086285	4.022584	0.443046	1.060614	0.96066	0.754288	1.625163	5.063597	1.192171	4.571863	2.152127	4.082275
0.092867	2.695341	1.80546	3.266233	0.176789	3.971558	0.353781	0.905043	1.161326	0.816248	1.936089	5.314277	0.476885	3.998118	1.543007	3.338875
-0.114125	2.422098	1.489882	2.998896	-0.068498	3.730814	0.216726	0.660785	0.820777	0.412863	1.289948	4.813693	-0.233391	3.219276	0.997835	2.573018
-0.224283	2.265234	1.539648	2.938085	-0.400698	3.423238	-0.056686	0.394459	0.918537	0.460203	1.439555	4.847613	1.147457	4.25983	1.902949	3.770228
-0.684082	1.289814	0.797684	2.411959	-0.342762	3.390044	0.035586	0.408244	1.057652	0.532023	1.722782	4.974073	0.624498	3.804037	1.444768	3.187402
-0.349845	2.204202	1.587625	2.783887	-0.583115	3.149445	-0.104867	0.291742	0.797775	0.225077	1.256044	4.651146	0.481731	3.700742	1.319646	3.13968
-0.902381	1.100646	0.518073	2.039888	-0.881328	2.836975	-0.354771	0.086826	0.674666	0.110565	1.183828	4.424616	-0.083029	3.084342	0.866436	2.730412
-0.54012	2.052154	1.289332	2.50202	-0.732628	3.011617	-0.065869	0.425172	0.895678	0.487785	1.569017	4.689231	-0.272424	2.871237	0.661672	2.514784
-0.864721	1.55702	0.740563	2.086733	-0.406974	3.259751	0.230332	0.854725	0.443626	0.146167	0.70902	3.85156	-0.787463	2.431572	0.295126	2.180265
-1.040951	1.369367	0.462747	1.899635	-0.940527	2.758715	-0.128635	0.650532	0.579019	0.397911	1.008018	4.016665	0.064165	3.059716	0.862621	2.848847
-1.136835	1.189038	0.23619	1.774623	-0.792829	2.917059	-0.047796	0.832209	0.365496	0.235777	0.686057	3.789267	-0.976711	2.213753	0.132186	2.013443
-0.768181	2.09639	0.964717	2.1921	-0.999397	2.718469	-0.137529	0.752967	0.287796	0.203481	0.617375	3.646422	-0.490063	2.569241	0.496514	2.349654
-1.298437	1.143729	0.021028	1.582807	-1.058584	2.6594	-0.305472	0.762	0.356701	0.405303	0.834422	3.710287	-1.39056	1.828883	-0.111516	1.680657
-1.074405	1.543478	0.586988	1.940081	-1.235268	2.543706	-0.373846	0.704613	0.17441	0.238826	0.361834	3.505879	-1.435922	1.822013	-0.110712	1.777651
-1.257112	1.232353	0.176804	1.743438	-0.999449	2.838655	-0.206035	0.916798	0.17441	0.274764	0.276587	3.498071	-0.92234	2.230405	0.213661	2.250801
-1.202592	1.368159	0.350757	1.866903	-0.999393	2.827799	-0.238953	0.95772	0.259211	0.405642	0.495553	3.641273	-0.815721	2.24596	0.294449	2.503126
-1.501871	0.822524	-0.095129	1.509503	-1.294265	2.485853	-0.496119	0.755683	0.514828	0.772401	1.058445	4.005133	-0.532078	2.375268	0.415235	2.61074
-0.889778	1.872375	0.978502	2.214095	-1.206751	2.611305	-0.397669	0.784398	0.338695	0.551939	0.675221	3.765301	-0.214568	2.66088	0.702006	3.069065
-1.291297	0.91482	0.168165	1.699094	-0.822413	2.948575	-0.206035	0.917458	0.603759	0.74275	1.274306	4.137684	-0.879294	2.083515	0.295302	2.400173
-0.884527	1.729473	0.89562	2.09041	-1.234991	2.461999	-0.63847	0.433166	0.399036	0.449288	0.826174	3.81554	-0.169883	2.669273	0.866436	3.277549
-1.109811	1.235162	0.510074	1.765187	-1.234482	2.385514	-0.672275	0.30147	0.114086	0.076969	0.278275	3.442892	-0.225941	2.711065	0.871407	3.231235
-0.794574	1.691859	0.844159	2.023786	-0.969965	2.536156	-0.521772	0.398592	0.17994	0.095676	0.440075	3.526363	0.095416	2.964789	1.209235	3.468769
-0.564941	1.887217	0.896074	2.147351	-1.058584	2.45243	-0.578331	0.338817	0.321103	0.245856	0.786949	3.738947	0.106197	2.921551	1.286201	3.377837
-0.528948	1.97167	1.031496	2.150981	-1.236526	2.267367	-0.692265	0.314373	0.393463	0.408797	0.71142	3.764424	0.005895	2.84591	1.208183	3.280209
-0.107073	2.618483	1.573425	2.56633	-0.822183	2.675893	-0.372241	0.704613	0.631549	0.755157	1.177808	4.137925	0.479492	3.279831	1.544508	3.550099
-0.209706	2.201846	1.176743	2.404107	-0.881372	2.710636	-0.350007	0.882785	0.602984	0.837701	1.11896	4.174753	0.29347	3.18787	1.536763	3.395877
-0.317512	1.977563	1.000774	2.366108	-0.613255	2.985117	-0.155646	1.145238	0.644421	0.954045	1.146032	4.184747	-0.179397	2.626418	1.121215	2.754532
-0.477492	1.8333	0.875359	2.235014	-0.971515	2.745197	-0.448107	0.945899	0.677061	1.030092	1.267524	4.360351	0.671781	3.353892	1.615883	3.269468
-0.441441	1.786634	0.906631	2.393558	-0.672556	3.032555	-0.212908	1.186815	0.577799	0.8343	1.034457	4.140858	0.337642	3.057953	1.283575	3.006224
-0.405448	1.829653	1.136796	2.49086	-0.642625	3.059149	-0.236875	1.183799	0.892593	1.241756	1.787773	4.624296	-0.524991	2.345171	0.583287	2.276634
-0.534106	1.554218	1.03234	2.42561	-0.732168	2.957713	-0.324965	1.181224	0.671254	0.893855	1.3147	4.2992	-0.04255	2.689365	0.910405	2.539291
-0.626531	1.370544	0.812415	2.297573	-0.702567	2.953406	-0.230574	1.210356	0.556208	0.796793	1.063201	4.072315	0.434573	3.095475	1.110826	2.883699
-0.657286	1.140521	0.634759	2.104951	-0.941332	2.688959	-0.482348	1.010586	0.482855	0.688638	1.053934	4.028015	1.004622	3.586171	1.606711	3.397756
-0.410499	1.645436	0.990388	2.395828	-1.090912	2.572554	-0.587894	0.972199	0.393463	0.570075	0.858298	3.856392	0.574372	3.224232	1.318153	2.96852
-0.39994	1.560996	0.937354	2.325807	-0.940918	2.758715	-0.424745	1.098708	0.393463	0.621921	0.83155	3.878155	0.814268	3.34452	1.434596	3.071589
-0.214535	1.870391	1.115057	2.433004	-0.821867	2.863538	-0.362995	1.25515	0.500706	0.80778	0.911855	3.936159	0.481731	3.040305	1.23075	2.799378
-0.234155	1.513158	0.749029	2.330742	-0.821841	2.879812	-0.359723	1.329307	0.51675	0.927788	0.960418	4.004083	0.433804	3.08655	1.189429	2.905689
-0.126002	1.738342	0.95892	2.429955	-0.732628	3.022256	-0.203531	1.510106	0.608271	1.107991	1.209338	4.203343	0.377312	2.982004	1.15725	2.766073
-0.503244	1.141371	0.385822	1.977938	-1.267566	2.490612	-0.679496	1.077829	0.548995	1.021094	1.162727	4.188205	0.373434	3.054857	1.119079	2.86275
-0.245584	1.781303	0.927526	2.460894	-1.00015	2.811621	-0.448552	1.246067	0.566971	1.002693	1.074587	4.208387	0.52533	3.113293	1.150872	2.896166
-0.276606	1.603503	0.821957	2.422137	-0.970492	2.869542	-0.394432	1.25442	0.669531	1.195285	1.290433	4.407122	0.001162	2.634534	0.783305	2.338181
-0.22161	1.731304	1.063132	2.622184	-0.376064	3.486174	-0.012267	1.644111	0.931369	1.456625	1.782943	4.781966	0.427278	3.028829	1.113306	2.838224
-0.204908	1.74003	1.106082	2.712695	-0.435901	3.486174	0.041207	1.633966	0.842835	1.354404	1.536042	4.62395	0.087272	2.832634	0.950885	2.766588
0.097592	2.421083	1.809013	3.204799	-0.762223	3.19747	-0.243242	1.402391	0.456531	0.890805	0.699332	4.116511	0.37477	3.054857	1.200112	3.020829
-0.013763	2.110196	1.444685	3.038334	-0.970492	2.895917	-0.388009	1.209444	0.928228	1.411814	1.642841	4.743721	-0.792042	2.074176	0.460065	2.170002
-0.004641	2.010023	1.399345	3.040133	-1.000667	2.911411	-0.397669	1.19821	0.772708	1.20339	1.316111	4.471653	-0.842563	2.122103	0.41884	2.13127
0.111032	2.206532	1.497096	3.170404	-0.525099	3.284314	-0.027618	1.506095	0.432934	0.838039	0.585298	3.937525	1.10077	3.661691	1.736452	3.839832
0.062055	2.145424	1.460875	3.107329	-0.464957	3.37369	-0.00096	1.499457	0.513065	0.90155	0.801214	4.013841	0.414327	3.192936	1.461235	3.541057
0.209299	2.484983	1.696149	3.237497	-1.297076	2.493184	-0.695656	0.877063	0.689427	1.130341	1.126889	4.2992	1.149099	3.727766	1.956252	4.117078
-0.071367	2.061114	1.178797	2.782429	-1.088558	2.739613	-0.611621	0.958243	0.262446	0.66572	0.375433	3.789297	1.246309	3.804037	2.13144	4.194183
-0.102416	2.063286	1.188841	2.750145	-0.96998	2.901373	-0.477855	1.132036	0.333089	0.793084	0.457874	3.838109	0.956013	3.549533	1.873344	3.853767
-0.219394	1.796505	0.91674	2.649851	-1.146896	2.765773	-0.628593	1.077425	0.513065	1.048672	0.765057	4.118881	0.955744	3.559131	1.96262	3.805634
-0.057655	2.290934	1.353872	2.915299	-1.412306	2.500174	-0.826359	0.961226	0.744357	1.311199	1.244758	4.489035	-0.597088	2.382649	1.005534	2.604974
-0.400427	1.793334	0.759881	2.61853	-0.940662	2.984653	-0.397978	1.431689	0.869339	1.567673	1.56562	4.749235	0.908451	3.530312	2.052418	3.825902
0.035412	2.484983	1.418725	3.043657	-1.059199	2.885572	-0.553994	1.408688	0.797775	1.535668	1.368989	4.585537	0.956242	3.539926	2.229029	3.839832
-0.31901	1.93059	0.927526	2.71789	-0.792829	3.189518	-0.217884	1.718677	0.566703	1.274489	0.807174	4.187672	0.76343	3.381953	2.149254	3.620063
0.079612	2.811746	1.615576	3.271899	-1.118789	2.832915	-0.489502	1.478322	0.727574	1.418625	1.063201	4.341512	0.282052	3.011419	1.813242	3.216328
-0.349845	2.079643	0.95892	2.782429	-0.762751	3.16345	-0.280418	1.575116	0.88469	1.584984	1.502497	4.591447	-0.644246	2.203213	1.222483	2.400173
-0.207586	2.30091	1.154636	2.915806	-0.999768	2.864845	-0.496902	1.337599	0.579608	1.158443	0.958694	4.111116	-0.879108	1.991954	1.136818	2.2193
-0.314195	1.981347	0.77152	2.655973	-0.970184	2.891004	-0.446404	1.372432	0.288066	0.804255	0.375433	3.739329	-0.424411	2.245521	1.429734	2.406965
0.203864	2.958531	1.651892	3.175339	-1.178888	2.644572	-0.68231	1.160583	0.716161	1.24415	1.210799	4.273678	-0.701088	2.122103	1.268843	2.312449
0.290352	2.954915	1.337382	3.106885	-1.179254	2.738619	-0.635027	1.23449	0.471849	0.999795	0.661837	3.955526	-0.065174	2.580379	1.700776	2.752867
0.646326	3.43146	1.912028	3.500391	-0.611891	3.255382	-0.28476	1.724374	0.597596	1.254265	0.899503	4.243664	-0.35499	2.43027	1.528455	2.532669
0.60237	3.101619	1.597011	3.336419	-0.611984	3.287291	-0.188925	1.834199	0.611934	1.362983	0.892081	4.29087	0.71488	3.298126	2.384613	3.55842
0.909957	3.698525	2.004456	3.632223	-0.641945	3.271789	-0.222436	1.906299	0.547277	1.447109	0.560033	4.175264	0.706249	3.427462	2.312922	3.541057
0.705125	3.114135	1.506883	3.400802	-0.249425	3.607961	0.027647	2.188769	0.933773	1.884977	1.349739	4.781291	1.000899	3.739662	2.607461	3.90955
0.898046	3.506866	1.857627	3.599011	-0.219036	3.725223	0.133021	2.251384	1.128541	2.219671	1.791442	5.091186	0.709287	3.512853	2.296843	3.585237
0.986984	3.464258	1.90615	3.698655	-0.279399	3.570002	-0.011604	2.094145	1.009929	2.040271	1.531843	4.902263	0.171908	2.985838	1.862763	3.058218
0.909957	3.144103	1.738752	3.599162	-0.672043	3.228945	-0.305472	1.706907	0.855716	1.734046	1.224445	4.703183	0.312762	3.058864	1.862763	3.083139
0.709299	2.800341	1.601552	3.467223	-0.611701	3.260854	-0.281569	1.687129	1.06074	1.894497	1.675049	4.980161	0.109099	2.971384	1.649182	2.97305
0.849678	2.936546	1.653597	3.46751	-0.282908	3.43714	-0.101969	1.745805	0.925226	1.645257	1.360697	4.714773	0.431152	3.257492	1.788116	3.195208
1.096856	3.437203	2.185084	3.72949	-0.461941	3.237673	-0.259701	1.562784	0.851317	1.463798	1.299719	4.54169	0.456462	3.123729	1.730104	3.058218
0.964993	3.202803	2.022281	3.598597	-0.61165	3.027536	-0.478996	1.32829	0.946857	1.483274	1.447917	4.559005	0.309097	3.06734	1.602341	2.887643
0.642301	2.67798	1.672376	3.304702	-0.400984	3.237673	-0.238953	1.512195	0.680651	1.172868	0.922816	4.137925	0.063055	2.906902	1.474707	2.778078
0.498675	2.415191	1.339494	3.140303	-0.344113	3.245147	-0.146653	1.556475	0.559074	1.076101	0.650689	4.096882	0.073969	2.874031	1.470168	2.790696
0.531887	2.808496	1.751356	3.304998	-0.433084	3.224861	-0.200063	1.596797	0.70236	1.260517	1.029222	4.267188	0.131363	2.785513	1.422764	2.622599
0.472961	2.579863	1.503075	3.240054	-0.554283	3.088263	-0.265292	1.590099	0.649828	1.23972	0.901604	4.253733	-0.045872	2.571754	1.247954	2.385701
0.378748	2.532392	1.554761	3.337399	-0.583598	3.125076	-0.268285	1.57982	0.562912	1.213051	0.767844	4.14581	0.61987	3.16872	1.583782	2.96852
0.535797	2.981645	1.946945	3.531109	-0.673773	3.046089	-0.306637	1.552859	0.611934	1.33838	0.830223	4.20666	0.479492	3.031466	1.533498	2.918254
0.282601	2.599983	1.702756	3.369396	-0.732423	2.989997	-0.425907	1.562067	0.55803	1.260517	0.743983	4.134729	0.142637	2.790911	1.288729	2.622666
0.172761	2.579863	1.49352	3.240054	-0.553159	3.147018	-0.304178	1.728827	0.604758	1.287086	0.740163	4.139735	0.32965	2.973403	1.375408	2.706286
0.140067	2.412464	1.585991	3.208425	-0.642246	3.148232	-0.275238	1.807205	0.779405	1.545256	1.150776	4.500175	0.415822	3.07215	1.467742	2.947767
0.232732	2.368574	1.568036	3.272719	-0.792013	3.068904	-0.319791	1.690433	0.749283	1.566776	0.919112	4.380111	0.905292	3.484751	1.80145	3.38269
0.391587	2.687505	1.921808	3.497911	-0.672122	3.127447	-0.311902	1.710192	1.098435	1.944508	1.574085	4.875001	0.953282	3.541051	1.846014	3.395877
0.473345	2.801923	2.014571	3.563831	-0.612503	3.168922	-0.230574	1.796613	1.045194	1.863142	1.39509	4.759677	1.29507	3.74747	2.099678	3.566038
0.543363	2.785075	1.946945	3.530536	-0.642066	3.164533	-0.201599	1.792514	1.021597	1.804405	1.264192	4.63405	1.682292	4.046635	2.386728	3.864967
0.33265	2.432222	1.681661	3.337348	-0.217359	3.558473	0.295611	2.227641	1.18051	1.921279	1.296301	4.687241	0.710213	3.222437	1.760451	3.117198
0.504557	2.603127	1.820195	3.498459	-0.122795	3.560781	0.500916	2.448636	1.490359	2.373359	1.920998	5.07991	0.901187	3.305447	1.808334	3.241881
0.488984	2.432222	1.681661	3.337399	-0.122795	3.469827	0.485741	2.445289	1.122305	1.909013	1.233108	4.63102	0.850507	3.361836	1.808334	3.351862
0.485021	2.432222	1.700025	3.337382	-0.001519	3.666593	0.653365	2.577657	1.182148	1.865376	1.419428	4.73223	1.442222	3.778442	2.198989	3.701187
0.460644	2.357988	1.582251	3.239575	-0.278664	3.419012	0.471959	2.369738	1.026881	1.629192	1.030188	4.419895	1.24491	3.682825	2.190328	3.633577
0.535908	2.627398	1.714826	3.337381	-0.24651	3.44162	0.413653	2.305995	1.532123	2.232315	2.131964	5.144254	0.538366	3.214691	1.777596	3.157867
0.622633	2.686778	1.82411	3.434957	-0.277987	3.552705	0.499569	2.394588	1.197895	1.803837	1.296528	4.612754	0.690049	3.416017	1.819437	3.30576
0.662135	2.725705	1.885136	3.532728	-0.123963	3.834154	0.695146	2.659289	1.469308	2.250273	1.912518	5.105229	0.648569	3.388978	1.811631	3.193225
0.785013	3.020197	2.13334	3.73005	-0.034408	3.939593	0.807991	2.870059	1.268613	2.09508	1.523203	4.869465	0.549081	3.445725	1.856359	3.316194
0.618638	2.593889	1.686706	3.598729	-0.003177	4.029181	0.822401	2.995204	0.855716	1.711031	0.641498	4.370528	0.838583	3.711475	2.038344	3.554264
0.852317	3.202803	2.073848	3.860759	-0.065032	4.016835	0.830269	2.969842	1.172724	2.081694	1.088918	4.73223	0.301194	3.236774	1.560578	2.97305
0.353354	2.219925	1.252932	3.30393	-0.063489	4.047689	0.764422	3.048879	1.426264	2.435135	1.659385	5.089127	0.505096	3.379942	1.727164	3.241881
0.777334	3.065053	2.065088	3.828596	-0.184601	3.935333	0.736709	2.98434	1.079534	2.012718	0.948036	4.578503	1.591082	4.385536	2.489144	4.294207
0.586983	2.776581	1.851565	3.663824	0.144509	4.180796	0.967307	3.203273	1.236053	2.090861	1.250187	4.787145	1.690311	4.385536	2.448221	4.136263
0.642301	2.833798	1.82411	3.664263	-0.24861	3.848507	0.706017	2.86463	1.367887	2.182687	1.36413	4.836677	1.640662	4.374693	2.356373	4.01659
0.439535	2.450713	1.644104	3.467633	-0.398644	3.669253	0.562393	2.627935	1.503137	2.353383	1.751619	5.107057	1.588567	4.309542	2.346248	4.006328
0.785013	3.091766	2.133871	3.793713	-0.429275	3.62532	0.425482	2.559016	1.341826	2.185883	1.930603	5.044545	0.171908	3.231352	1.552998	3.069065
0.2681	1.893934	1.137899	3.10816	-0.37139	3.613868	0.43763	2.609605	0.575632	1.728464	1.468372	4.446862	-1.130289	2.275574	1.04521	2.535892
1.085982	2.86276	1.997183	3.629791	-0.913103	2.99063	-0.117931	2.090642	0.309821	1.366913	0.843027	4.054664	-1.025578	2.579788	1.382689	3.144464
1.023328	2.506086	1.55905	3.337293	-0.313066	3.592735	0.388722	2.538715	0.372054	1.221755	0.574082	3.948189	-0.992098	2.501869	1.260088	2.960486
1.476116	3.322211	2.185145	3.794912	-0.372895	3.483333	0.340285	2.506401	0.76432	1.594912	1.110625	4.323266	-0.000503	3.409933	1.98049	3.839839
1.146345	2.578535	1.447075	3.401611	-0.430712	3.535389	0.221265	2.441953	1.156584	2.041543	1.77881	4.900438	0.71846	3.969327	2.481174	4.368202
1.703348	3.665934	2.38291	4.059033	0.208326	4.115728	0.695391	2.90188	1.463404	2.349258	2.19555	5.337748	-0.141605	3.204574	1.808334	3.478878
1.468584	3.172747	1.71453	3.76515	0.580292	4.55418	1.011008	3.32534	1.54096	2.55867	2.160745	5.486591	0.18992	3.587876	2.110154	3.916427
2.059879	4.277882	2.618148	4.532041	0.249031	4.315452	0.777875	3.220079	1.684801	2.84772	2.006472	5.643209	0.663761	4.062062	2.334111	4.339414
1.742283	3.67167	1.939883	4.167371	0.674894	4.614017	1.096647	3.505478	1.652038	2.843524	1.68196	5.534496	1.100205	4.4432	2.597422	4.675504
1.886147	4.256336	2.331919	4.435006	0.706107	4.68707	1.246636	3.72037	1.611067	2.776973	1.466531	5.336428	0.807773	4.187197	2.558358	4.720948
1.535044	3.585581	1.694774	4.033735	0.218568	4.295069	0.917135	3.429334	2.005182	3.196984	2.330002	5.821752	0.712735	4.15581	2.294724	4.64102
1.842307	4.328302	2.348163	4.427308	0.741065	4.827015	1.340501	3.85633	1.73088	2.852945	1.764934	5.448983	1.874667	5.091865	3.185172	5.736814
1.146345	3.085261	1.20176	3.599011	0.429077	4.42899	1.089641	3.622766	1.459876	2.500441	1.229836	4.968475	1.246309	4.594313	2.727079	5.343722
1.611094	4.191542	2.107947	4.193282	-0.398181	3.709855	0.457216	2.986448	1.641238	2.713131	1.675049	5.304272	1.294806	4.618204	2.765628	5.393237
1.548743	4.196261	2.099171	4.059644	0.210749	4.212575	0.967307	3.463544	1.354289	2.305273	1.094575	4.86393	0.321114	3.84371	2.081988	4.485205
1.189394	3.69052	1.681661	3.696075	-0.065032	3.951826	0.74137	3.241041	1.521234	2.498601	1.749142	5.249451	-0.255187	3.287475	1.650406	4.046395
1.181834	3.567697	1.539648	3.631415	0.237346	4.311289	0.972136	3.506262	1.227376	2.089755	1.09826	4.781792	0.61987	3.989977	2.283774	4.755418
1.441753	4.117557	2.23618	3.954357	0.022276	4.076969	0.877741	3.347887	1.238617	2.042834	1.200239	4.786403	0.376063	3.850667	2.163633	4.606212
1.258139	3.814725	1.753171	3.696367	0.505488	4.519958	1.193383	3.646056	1.065078	1.77323	0.983904	4.565181	-0.1775	3.398003	1.746674	3.999248
1.240159	3.985832	1.979526	3.759666	-0.159743	3.830414	0.704871	3.147755	1.168636	1.926159	1.134393	4.678527	0.372054	3.823889	2.303056	4.701213
1.2796	4.127049	2.202423	3.791881	0.085569	4.069493	0.843055	3.258242	1.421812	2.144733	1.592837	4.882477	-0.210153	3.296467	1.872986	4.096915
1.089635	3.533885	1.681661	3.466539	-0.18684	3.704725	0.560262	2.862893	1.385982	2.002723	1.375612	4.765304	0.060727	3.463944	2.057341	4.361831
1.047059	3.551079	1.786808	3.46445	-0.155859	3.672441	0.609671	2.829756	1.389895	1.97476	1.497153	4.732319	-0.387009	3.140818	1.928449	4.050461
1.096856	3.719533	1.997183	3.530536	0.119104	3.91328	0.78834	2.953767	1.456109	1.933865	1.638104	4.769785	0.065335	3.436599	2.187152	4.175356
0.936738	3.420081	1.573425	3.208421	-0.123559	3.672441	0.601386	2.692042	1.336347	1.746381	1.367495	4.5865	0.173772	3.447106	2.222686	4.091286
0.693788	2.954915	1.282768	2.919862	-0.429403	3.287291	0.32992	2.401866	1.478208	1.763888	1.659385	4.748313	0.362831	3.682825	2.312922	4.283514
1.313138	3.9703	2.292763	3.526216	-0.121759	3.534249	0.466113	2.533992	1.520012	1.89773	1.821646	4.900438	-0.04937	3.15973	1.906141	3.541057
1.254244	3.926923	2.082541	3.433372	-0.368637	3.297088	0.320087	2.277393	1.321124	1.705996	1.574085	4.759351	0.081848	3.269458	1.957536	3.683259
1.342017	3.930627	2.165863	3.494637	-0.459656	3.249908	0.259256	2.28814	1.366544	1.81279	1.602977	4.840569	0.103755	3.224715	1.849559	3.571827
1.328937	4.098319	2.167512	3.496966	0.025011	3.736037	0.682808	2.647763	1.297724	1.777483	1.432143	4.775906	-0.466414	2.875306	1.468968	3.180555
1.313138	4.118219	2.081512	3.494192	-0.188621	3.544153	0.486531	2.531266	1.130564	1.599521	1.144419	4.495453	-0.110572	3.213511	1.689773	3.728249
1.00798	3.756098	1.727065	3.272325	0.289895	4.059556	0.903589	2.989408	1.185076	1.621471	1.191	4.495255	-0.515175	2.828965	1.421513	3.374126
0.891454	3.841361	1.711553	3.239798	0.017768	3.783764	0.675838	2.88505	0.900223	1.313579	0.677068	4.065765	-0.337717	3.02013	1.42519	3.426493
0.412189	3.242106	1.073252	2.824611	-0.191716	3.654176	0.543399	2.805193	0.745975	1.164442	0.399951	3.839019	-1.620454	1.869735	0.46004	2.230192
0.685004	3.676287	1.654088	3.17535	-0.523463	3.393992	0.324019	2.559887	0.830748	1.247323	0.528495	3.944085	-0.508297	2.686025	1.121215	3.13968
0.677493	3.930627	1.660804	3.175828	-0.34832	3.494131	0.447489	2.68694	0.844445	1.127329	0.523861	3.863537	-0.535561	2.807638	1.087361	3.329076
0.336721	3.384675	1.17061	2.828097	-0.792329	3.099189	0.084748	2.329705	1.197619	1.563184	1.259928	4.277841	-0.067358	3.148802	1.428637	3.839839
0.488984	3.640523	1.493486	3.048928	-0.079302	3.862092	0.76812	2.956152	0.868858	1.188739	0.533195	3.709176	-0.936569	2.462444	0.837762	3.03426
0.403108	3.574507	1.395873	2.922671	-0.732225	3.131907	0.13974	2.337686	1.215647	1.607467	1.225845	4.251707	-0.267858	3.054857	1.431849	3.768859
0.653572	4.014624	1.594869	3.143815	-0.435457	3.417003	0.407706	2.647763	0.674666	1.019515	0.114452	3.53494	0.715512	3.770203	2.181302	4.542562
0.191065	3.068503	0.966921	2.606247	-0.642625	3.215556	0.285645	2.547799	1.255424	1.75774	1.330602	4.320137	-1.209212	2.283049	0.921521	3.108352
0.66987	3.8368	1.684964	3.112503	-0.582157	3.301066	0.399294	2.692042	1.133378	1.688297	0.985624	4.155148	0.765299	3.917602	2.346248	4.892319
0.56343	3.502178	1.45665	2.953201	0.441693	4.194742	1.21612	3.522238	1.385982	2.066318	1.319065	4.559734	-0.431477	2.892443	1.510345	3.728249
0.912252	4.187942	1.938315	3.304518	-0.309414	3.456634	0.631673	2.992279	1.255074	1.939924	0.969548	4.264617	0.760911	3.943637	2.453276	4.986108
0.60237	3.423898	1.324819	2.88723	-0.33863	3.479347	0.617784	2.950808	1.796064	2.605433	2.061719	5.048989	0.166035	3.531539	2.123828	4.426826
0.968704	4.043809	1.827076	3.272674	0.541138	4.311442	1.344836	3.649537	1.309969	2.063068	1.039911	4.413331	-0.650568	2.810093	1.561751	3.673161
0.697842	3.469116	1.324819	2.919538	-0.000994	3.787179	0.909228	3.276521	1.721111	2.458637	1.75025	4.856481	-0.365926	3.041873	1.735677	3.94108
0.961253	3.998952	1.827076	3.208425	0.569551	4.291908	1.474847	3.718531	1.281931	1.962911	0.732092	4.213429	0.417271	3.606995	2.16165	4.497027
0.893409	3.809878	1.681661	3.047976	0.388155	4.077916	1.269499	3.463813	1.528173	2.177357	1.339921	4.629667	1.391591	4.412616	2.795025	5.245715
0.885672	3.90897	1.620571	3.015761	0.415641	4.091251	1.351222	3.498037	1.336347	1.836176	1.002129	4.318094	0.333329	3.474539	2.060821	4.300859
1.161105	4.282407	1.95458	3.240502	-0.064503	3.687086	0.969839	3.140534	1.405445	1.876666	1.027444	4.318094	-0.151534	3.131069	1.728647	3.818156
1.125398	4.342742	1.997183	3.304518	0.574452	4.272412	1.443445	3.58435	1.747621	2.267669	1.920179	4.930878	0.465447	3.700742	2.207276	4.310321
0.972387	4.073807	1.811415	3.144387	0.089009	3.816164	1.070253	3.265309	1.404111	1.854181	1.070959	4.414155	0.326981	3.512598	2.116159	4.091406
1.068372	4.277208	1.97207	3.272325	0.146895	3.882825	1.130248	3.330221	1.699948	2.319395	1.659385	4.813476	1.052539	4.085971	2.573531	4.7018
1.004353	3.984719	1.690877	3.080477	0.367893	4.114571	1.269578	3.515593	1.729521	2.317105	1.75556	4.892522	0.378517	3.539926	2.155558	4.034672
0.997016	4.038995	1.681661	3.144292	0.602942	4.272412	1.468681	3.749075	1.451033	2.102916	1.264192	4.651475	0.177362	3.428539	1.993057	3.853591
1.309907	4.586867	2.303415	3.559726	-0.03556	3.681203	0.97239	3.247749	1.793112	2.523155	2.001076	5.126502	0.049817	3.289179	1.849559	3.729946
1.210405	4.4875	2.210064	3.432005	0.392263	4.083238	1.283461	3.537308	1.630985	2.311646	1.629212	4.900438	-0.14544	3.15073	1.684203	3.695434
1.139501	4.360725	2.057123	3.400462	0.208326	3.953575	1.15536	3.429334	1.22882	1.750702	0.772026	4.269749	-0.065174	3.093116	1.649182	3.665743
0.852317	3.764848	1.591817	3.048883	0.027525	3.751567	1.047621	3.239507	1.343168	1.907778	1.085191	4.399013	1.052611	3.984081	2.489144	4.607838
1.18842	4.185767	2.048558	3.334805	0.026296	3.675317	1.00495	3.116211	1.479436	1.970094	1.307411	4.511525	-0.021801	3.16649	1.737006	3.679168
1.153163	4.371698	2.149713	3.302924	0.175967	3.832367	1.114648	3.21961	1.680996	2.221011	1.804184	4.88686	0.049817	3.068671	1.724124	3.606553
1.239115	4.316401	1.97207	3.304219	0.145318	3.826296	1.116982	3.215442	1.327743	1.705996	1.096774	4.325135	-0.019633	3.093116	1.738308	3.65232
1.476893	4.911482	2.547923	3.653375	0.116961	3.844504	1.109933	3.223776	1.543387	2.073266	1.519043	4.742794	0.333329	3.298465	2.027476	3.791803
1.025386	3.899861	1.597011	3.016369	0.818653	4.532405	1.657283	3.80257	1.54695	2.046275	1.498513	4.704825	-0.449618	2.71389	1.523939	3.132964
1.28995	4.316401	1.938315	3.304518	0.270738	3.979765	1.210276	3.386408	1.404111	1.953211	1.211119	4.565088	0.62059	3.704343	2.416942	4.246484
1.587796	4.816722	2.23618	3.658864	0.390235	4.058152	1.292399	3.485305	1.670862	2.326277	1.623781	4.950181	0.469333	3.717903	2.257098	4.349409
1.617212	4.911466	2.372723	3.756156	0.30246	3.985947	1.207965	3.45521	1.899723	2.71911	2.107597	5.270964	0.956583	3.973637	2.628172	4.592512
1.429013	4.46023	1.862395	3.465071	0.213788	3.931535	1.168525	3.489546	1.740105	2.528745	1.740955	5.075295	-0.778859	2.556784	1.393602	3.058973
1.499917	4.686511	2.234463	3.625579	0.486082	4.304811	1.515091	3.881007	1.602767	2.360358	1.375612	4.857947	0.235913	3.261497	1.986023	3.867706
1.143131	4.062853	1.653597	3.305028	0.733512	4.46845	1.616503	4.002989	1.854986	2.651657	1.858273	5.155642	0.90914	3.785417	2.483852	4.37437
1.487312	4.867142	2.321743	3.75724	-0.063003	3.725223	1.020011	3.389758	1.615014	2.417205	1.32588	4.825747	0.330919	3.409404	2.02558	3.867706
1.085982	3.954006	1.545325	3.240496	0.235557	3.974846	1.217114	3.545768	1.538489	2.27632	1.354424	4.716263	0.465447	3.568721	2.211276	4.315485
1.235745	4.560013	1.938315	3.529897	0.084097	3.820224	1.139672	3.472463	1.126954	1.826618	0.49593	4.089268	0.039801	3.113293	1.857997	3.784865
0.957485	3.963209	1.399345	3.111597	0.089009	3.818344	1.077645	3.411998	1.191733	1.853835	0.572584	4.228551	0.47494	3.511058	2.196859	4.16521
1.089635	4.098319	1.606327	3.272719	0.119104	3.800228	1.027508	3.407738	1.517535	2.184691	1.236787	4.613654	0.612609	3.559131	2.253039	4.189034
1.014169	3.972325	1.314995	3.143765	0.172547	3.777683	1.123888	3.493664	1.312824	1.99004	0.874387	4.365628	-0.455239	2.824314	1.609448	3.518175
1.445084	4.846591	1.86058	3.596	0.179173	3.800228	1.077645	3.48974	1.402766	2.103794	0.82415	4.387286	0.714206	3.734323	2.545798	4.621105
1.301457	4.479989	1.568645	3.402231	0.362368	3.974846	1.205638	3.593659	1.732071	2.629505	1.333038	4.880179	0.809152	3.810488	2.55089	4.53959
1.380193	4.604886	1.666906	3.498459	0.575645	4.149453	1.33831	3.745602	1.491517	2.287357	0.855309	4.446295	0.079948	3.288984	2.078357	4.140273
1.301457	4.672185	1.564127	3.402062	0.512595	4.058997	1.315336	3.762669	1.824118	2.779306	1.453515	4.967107	-0.124491	3.11063	1.910837	4.035302
1.448387	5.043909	1.871059	3.594552	0.263372	3.803481	1.178271	3.579925	1.728466	2.641847	1.159858	4.792912	0.036103	3.270669	1.902884	4.154575
1.522905	5.273082	2.039412	3.721455	0.237346	3.82181	1.091992	3.550149	1.662384	2.626794	1.140018	4.662193	0.473904	3.557018	2.196859	4.60321
1.085982	4.458939	1.257179	3.176369	0.328645	3.885829	1.169296	3.666572	1.630985	2.483526	1.144419	4.575878	0.216215	3.419241	1.994754	4.660371
1.085982	4.711752	1.400914	3.272437	0.054242	3.719974	1.024244	3.425059	1.64616	2.513343	1.174921	4.678527	-0.060947	3.049134	1.687039	4.134006
0.73372	3.922468	0.812124	2.889694	0.331507	3.982072	1.169296	3.636159	1.570229	2.311646	1.071414	4.410143	-0.377746	2.731986	1.551646	3.951432
1.535285	5.617717	2.079437	3.749792	-0.24651	3.460045	0.722757	3.158145	1.770875	2.608685	1.616666	4.773601	0.150604	3.160005	1.923997	4.43126
0.942125	4.444714	0.988485	3.080273	0.760668	4.408022	1.531189	3.925136	1.501535	2.26182	1.010874	4.394094	1.148751	4.088664	2.701539	5.503759
1.581562	5.71979	2.047542	3.81718	0.21153	3.936459	1.164714	3.597615	1.495354	2.323118	0.989184	4.441588	0.523595	3.573385	2.322664	4.874468
1.1034	4.602778	1.122794	3.208425	0.334249	4.007071	1.265058	3.784224	1.862731	2.763966	1.756576	4.950664	-1.131712	2.174139	1.266039	3.446236
1.67623	5.460744	1.947068	3.81857	0.766015	4.513238	1.700419	4.247229	1.674335	2.586582	1.267524	4.710786	0.093876	3.20627	2.070802	4.550943
1.239462	4.634114	1.188841	3.272455	0.741065	4.455193	1.559578	4.13693	1.7781	2.828013	1.502535	4.896364	0.037975	3.14172	2.123828	4.546542
1.962769	5.935872	2.319415	4.115177	0.185582	3.939593	1.191337	3.75579	1.7781	2.838355	1.39509	4.847321	0.521693	3.511058	2.646671	4.968527
1.623357	5.112714	1.615198	3.697365	0.986765	4.723496	1.898674	4.461126	1.814915	2.913188	1.294429	4.919073	-0.853335	2.470125	1.794871	3.816514
1.644033	5.041753	1.920857	3.825092	0.839045	4.507926	1.706349	4.255047	1.979596	3.023561	1.534917	4.995314	1.441461	4.287792	3.416726	5.656181
1.406895	4.449791	1.568645	3.50009	0.783112	4.508209	1.71962	4.279118	2.325361	3.457598	2.247601	5.497046	-0.527594	2.651461	2.111323	3.816514
2.061951	5.905858	2.811175	4.282613	0.876856	4.494958	1.826585	4.32305	1.924509	2.941573	1.355419	4.946562	1.392806	4.185084	3.475964	5.37652
1.218177	4.090774	1.431849	3.337381	1.068765	4.593866	1.9555	4.349859	2.037005	2.99841	1.487516	5.046077	0.612609	3.493586	2.858224	4.452672
1.878437	5.522119	2.560104	4.048798	0.629244	4.153502	1.608149	3.972681	2.248085	3.245611	2.006472	5.40925	-0.112772	2.79928	2.416917	3.818156
1.319648	4.444714	1.677193	3.43485	1.060237	4.572906	2.0421	4.369107	2.199661	3.199509	1.918434	5.316023	1.148467	3.923177	3.267003	4.648785
1.610983	4.834695	2.133871	3.725209	1.068765	4.580431	2.005326	4.371793	2.665808	3.732221	2.86535	5.932782	0.807773	3.651909	3.084745	4.427534
1.359433	4.287713	1.667609	3.467299	1.390523	4.892245	2.237344	4.65628	2.408121	3.417078	2.372828	5.631993	-0.422443	2.580379	2.115056	3.244943
1.812951	5.361642	2.595329	4.048798	0.757872	4.323733	1.784252	4.133985	2.176843	3.158698	1.942649	5.272262	1.635764	4.266026	3.602193	5.051599
1.558882	4.632324	2.097485	3.794129	1.297221	4.832655	2.204183	4.637505	2.432584	3.474418	2.433037	5.653778	1.050618	3.866788	3.118723	4.479393
1.854195	5.232832	2.603065	4.112451	1.419323	4.845042	2.29121	4.639354	2.316584	3.238942	2.20167	5.448983	-0.575383	2.596035	1.844072	3.046495
1.513337	4.638545	2.013403	3.693967	1.164493	4.587149	2.081238	4.445202	2.343517	3.280558	2.32398	5.456471	0.131363	2.900995	2.180372	3.461844
1.458132	4.654246	2.219434	3.72472	0.727116	4.166083	1.734725	4.039767	2.061916	2.902826	1.739773	5.111944	0.276284	3.15973	2.263003	3.791803
1.075483	3.77858	1.503075	3.176369	0.974584	4.29796	1.84835	4.104609	2.070033	2.812489	1.868773	5.033179	1.490429	4.174387	3.126711	4.750398
1.389758	4.545723	2.149713	3.621294	0.62638	3.998306	1.540175	3.746902	1.611067	2.252044	1.03919	4.509252	0.16804	3.148802	2.220847	3.647094
1.054061	3.799566	1.624756	3.144307	0.935015	4.311442	1.834432	3.99075	1.752138	2.379794	1.275976	4.640408	-0.479741	2.60384	1.661156	2.887026
1.360833	4.33211	2.039412	3.460379	0.252224	3.584786	1.375188	3.493318	1.974317	2.626794	1.605908	4.869465	-0.549868	2.494059	1.525829	2.875495
1.377329	4.43792	1.904645	3.496254	0.624401	3.973582	1.868117	4.042096	1.906425	2.608868	1.468221	4.787439	0.36916	3.326268	2.215179	3.777975
1.223621	4.028447	1.770804	3.303645	0.849887	4.271646	2.035929	4.298348	2.069055	2.850934	1.811601	5.093777	-0.021801	2.918062	1.957536	3.29043
1.235745	4.068844	1.591817	3.36895	0.837775	4.246374	2.079392	4.296262	2.229715	3.178875	2.208694	5.42879	-0.104251	2.875306	1.946211	3.334866
1.476893	4.525614	2.014643	3.722607	0.563433	4.081963	1.829643	4.156157	1.955974	2.838355	1.587355	5.066309	-0.35765	2.697553	1.738308	3.045756
1.139501	3.916351	1.609939	3.433596	0.593938	4.206221	1.833913	4.178308	2.020698	2.966904	1.632272	5.183386	-0.257624	2.790911	1.777596	3.312905
1.345219	4.333482	1.930292	3.723696	0.549216	4.136266	1.83054	4.170283	1.888297	2.759108	1.443805	5.050229	-1.12775	2.119808	1.13731	2.596285
1.447787	4.706094	2.242469	3.983432	0.615943	4.291853	1.903878	4.296262	1.84437	2.776973	1.422707	4.989672	-0.822416	2.253057	1.303582	2.718352
1.277826	4.333482	1.997809	3.823505	0.900777	4.679431	2.186987	4.619056	2.14511	3.105997	1.93714	5.377214	-1.14392	2.250632	1.137773	2.752867
1.11442	4.043739	1.811415	3.726576	0.837775	4.639621	2.164479	4.613979	2.008085	2.947675	1.739722	5.263153	-0.431824	2.874031	1.614629	3.481759
1.21375	4.131432	1.862395	3.791383	0.461122	4.311289	1.854297	4.26468	2.043372	3.057245	1.717803	5.373257	0.760177	3.800426	2.460693	4.464364
1.00798	3.671844	1.512561	3.597182	0.592969	4.396021	1.866073	4.379076	2.11246	3.137146	1.834217	5.456948	-0.591093	2.650729	1.561751	3.316194
1.450824	4.441508	2.242469	4.079753	1.031392	4.773066	2.185233	4.612261	2.044395	3.023561	1.753024	5.379155	-0.365926	2.952051	1.696152	3.580681
1.110963	3.697749	1.600912	3.595663	0.841548	4.580925	1.99962	4.379076	2.246267	3.215808	2.05436	5.74002	0.806227	3.943637	2.553402	4.794751
1.296712	3.901893	1.878406	3.790867	0.929574	4.55418	2.084882	4.457295	2.131249	3.044751	1.773882	5.492734	0.324137	3.503096	2.20318	4.36414
1.42579	3.999763	1.95458	3.823505	1.119082	4.831116	2.268474	4.619056	2.574094	3.440416	2.63686	6.031612	0.523595	3.511058	2.194705	4.208679
1.676202	4.375157	2.28487	3.979333	0.806315	4.455454	2.029353	4.364474	2.451631	3.358984	2.396632	5.96665	1.53294	4.324063	2.907597	5.227028
1.623332	4.327979	2.262292	3.951538	0.895344	4.461822	2.086681	4.362	2.28833	3.083836	1.964129	5.645471	-0.100268	3.031466	1.722566	3.736315
1.747586	4.592678	2.374579	4.018464	1.106262	4.663136	2.359003	4.563153	2.41416	3.167942	2.355206	5.731445	0.305242	3.305447	1.955995	4.219323
1.487312	4.180468	2.099726	3.82054	0.773655	4.337479	2.029353	4.26468	2.666356	3.47471	2.808803	6.099127	0.234517	3.233924	1.847798	4.020501
1.587796	4.284175	2.270647	3.886292	1.032792	4.620149	2.259988	4.494151	2.595164	3.411872	2.635786	6.012283	-0.26011	2.854365	1.51647	3.616661
1.510093	4.211985	2.210961	3.855582	0.970672	4.567553	2.230324	4.531105	2.599309	3.377986	2.639731	5.88957	0.511005	3.456563	2.076505	4.28125
1.729605	4.360471	2.361967	4.076025	1.182476	4.883405	2.449664	4.771153	2.456231	3.320139	2.316981	5.768782	1.149076	4.008682	2.570768	4.781686
1.578405	4.201554	2.091167	3.919599	0.938961	4.614017	2.20237	4.568155	2.549278	3.423163	2.434607	5.812501	0.37477	3.353892	1.98049	4.102704
1.38689	3.623142	1.666906	3.659325	1.167403	4.814286	2.245599	4.608182	2.96719	3.979338	3.381003	6.46073	-0.307581	2.752553	1.601065	3.390826
2.060922	5.078457	2.77644	4.401887	1.163018	4.827015	2.307127	4.664702	2.409693	3.302675	2.229987	5.703044	2.07246	4.822904	3.259111	5.638915
1.402459	3.796594	1.79988	3.69436	1.407046	5.111628	2.580852	4.955441	2.456962	3.377249	2.373728	5.831308	0.713491	3.780284	2.361305	4.356713
1.924987	4.998495	2.625897	4.271944	0.752607	4.415521	1.963765	4.268431	2.641702	3.537657	2.687459	6.035487	-0.363118	2.935081	1.644026	3.488242
1.139451	3.55928	1.357145	3.337348	1.024202	4.620149	2.164479	4.511134	2.486458	3.395049	2.582354	5.895939	-0.616292	2.643555	1.39186	3.132964
1.435378	4.218784	2.022963	3.719609	1.058771	4.759324	2.211279	4.634281	2.420181	3.236778	2.443909	5.793078	-0.169839	3.046193	1.644026	3.501444
1.587796	4.51569	2.210961	3.819899	0.866627	4.566994	2.117842	4.420534	2.074762	2.807312	1.69864	5.238727	1.48906	4.368363	2.739223	4.844937
1.432209	4.4875	2.125011	3.72024	0.618138	4.291514	1.854297	4.22079	2.351574	3.180433	2.355206	5.700353	1.343251	4.255138	2.608611	4.656428
1.025386	3.55928	1.314995	3.112268	1.139394	4.822313	2.359003	4.761693	2.100006	2.893214	1.790189	5.330112	-0.117315	3.02013	1.558155	3.351862
1.503001	4.630757	2.311447	3.718963	0.497025	4.238919	1.824584	4.176814	2.328247	3.129651	2.214953	5.555193	0.954266	3.892442	2.44566	4.51447
1.06115	3.657554	1.47041	3.208361	0.495157	4.199866	1.771056	4.198813	2.147603	2.983925	2.047374	5.410788	1.44248	4.287792	2.757015	4.908361
1.149789	3.897035	1.687145	3.366384	0.338549	4.095775	1.61697	3.990135	2.216005	3.03996	2.076191	5.453959	0.417271	3.484067	2.027476	4.040307
1.296712	4.138224	1.784676	3.465358	0.734803	4.474632	2.045603	4.390892	1.935517	2.738688	1.381392	5.045408	1.441774	4.368363	2.751167	4.939907
1.139501	4.024433	1.642913	3.368568	0.460154	4.213375	1.727889	4.051411	2.144258	2.959878	1.840832	5.314286	0.757724	3.902693	2.370902	4.434332
0.801421	3.420081	1.166863	3.047785	0.947859	4.644089	2.127927	4.466132	2.170133	3.022701	1.963878	5.349661	-0.377665	2.896452	1.651603	3.554264
1.136017	4.22749	1.718119	3.530225	0.494202	4.238919	1.775149	4.172084	2.166846	3.128778	1.903878	5.351812	-0.024016	3.131069	1.819437	3.826091
0.925432	3.822963	1.49352	3.36961	0.495157	4.206221	1.749458	4.096689	2.324614	3.3208	2.095227	5.536165	0.898554	3.964071	2.430836	4.68224
0.90854	3.7025	1.45665	3.304643	0.306694	3.972024	1.570142	3.936976	2.233076	3.184341	2.041265	5.403289	-0.129518	3.101879	1.696152	3.719453
0.997016	4.062853	1.690877	3.466336	0.339368	4.102041	1.69393	4.061874	2.160699	3.057245	1.747303	5.283927	0.415822	3.549533	2.123828	4.330118
1.068372	4.187942	1.887219	3.562567	0.747002	4.435736	1.949729	4.371515	2.167683	3.014638	1.739722	5.219773	-0.600161	2.650729	1.436667	3.393489
0.630055	3.343939	1.136796	3.015267	1.27264	4.883405	2.378983	4.769953	2.417605	3.377728	2.384024	5.65084	0.520679	3.612704	2.20524	4.427534
1.171553	4.38219	1.938315	3.626044	1.022727	4.573713	2.192157	4.568155	2.485217	3.497571	2.525404	5.734467	0.761602	3.82615	2.511871	4.810277
0.79751	3.674223	1.376624	3.176302	0.77849	4.284473	1.947773	4.376353	2.507386	3.480364	2.467806	5.762386	0.570454	3.491773	2.380136	4.49104
1.043516	4.07875	1.684964	3.432311	0.557663	4.108307	1.768986	4.156157	2.454739	3.473939	2.282594	5.624922	1.291209	4.112142	2.886	5.131685
0.678065	3.228159	0.999935	2.952579	0.435378	3.964054	1.633858	4.009147	2.758725	3.854423	2.920881	6.005842	1.197139	4.054084	2.901171	5.148532
1.267883	4.471278	2.031696	3.658386	0.498839	4.061789	1.685331	4.048964	2.436964	3.377249	2.237773	5.530097	0.907194	3.760115	2.77955	4.923018
0.661907	3.238657	1.011087	3.047104	1.018224	4.51405	2.069642	4.405718	2.337745	3.363425	1.979493	5.358557	0.561994	3.754277	2.800658	4.937134
1.089373	3.897035	1.687145	3.56104	0.906004	4.356611	1.947773	4.371515	2.37078	3.440094	2.14399	5.375566	-0.438964	2.820475	2.180372	4.183195
1.132505	3.940041	1.718119	3.62849	1.344933	4.825723	2.292873	4.867316	2.357271	3.451841	2.414707	5.411683	-0.335439	2.849514	2.180372	4.374054
1.493669	4.510087	2.268895	3.950794	0.465759	4.004484	1.493567	4.080347	2.341325	3.50179	2.754045	5.643594	-0.086128	3.133043	2.614748	4.792491
1.545856	4.252939	1.97207	3.757757	0.836491	4.278893	1.587052	4.22079	2.006575	2.996674	1.991688	5.153719	-0.685723	2.760725	2.259091	4.310321
1.549043	4.162543	2.014643	3.690235	0.708544	4.162244	1.573789	4.199546	1.956047	2.96783	1.931731	5.177113	-0.403799	2.969304	2.386816	4.599917
1.777302	4.410443	2.125011	3.82054	0.613695	4.091251	1.523263	4.119957	2.19936	3.287604	2.069272	5.365259	-0.5592	2.91287	2.175017	4.531642
2.017834	4.855248	2.598104	4.076025	0.955333	4.44133	1.881949	4.482848	2.013612	3.026803	1.613647	5.11552	-0.833408	2.631695	1.822382	4.105601
1.594933	3.899861	1.842482	3.62849	1.117523	4.605724	2.081405	4.659079	2.419552	3.560341	2.380369	5.70657	-0.485936	3.02013	2.136297	4.304453
1.839869	4.542891	2.388774	3.917457	1.387184	4.872895	2.297769	4.933442	2.412712	3.566334	2.053099	5.562792	-0.389449	3.075556	2.132861	4.226161
1.627691	3.944717	1.903132	3.693132	1.260477	4.74669	2.214734	4.850445	2.643973	3.860415	2.604342	5.890584	0.004361	3.399946	2.421666	4.53959
1.92387	4.565686	2.442389	4.08407	1.289339	4.813212	2.317313	4.992682	2.431818	3.652847	2.170058	5.659112	0.71488	3.979655	2.862688	5.116286
1.630926	3.783115	1.784676	3.62734	1.07419	4.581132	2.071853	4.705197	2.497635	3.687506	2.073656	5.661502	0.235913	3.642119	2.511871	4.651654
1.872687	4.388409	2.319415	3.947664	1.311319	4.738712	2.32538	4.993448	2.178769	3.260756	1.48576	5.168209	-0.205452	3.307259	2.129323	4.295783
1.453878	3.522171	1.431849	3.466725	1.18086	4.659002	2.276579	4.955441	2.160699	3.233486	1.525493	5.150001	-0.169839	3.231352	2.092277	4.290008
1.866829	4.560013	2.458491	4.080647	1.133988	4.720284	2.183463	4.898717	2.259649	3.281257	1.855067	5.239661	0.572145	3.82615	2.504497	4.717267
1.771318	4.277208	2.22784	3.918186	1.126694	4.659958	2.136766	4.877787	2.258889	3.315221	1.821646	5.300534	-0.399661	3.084342	1.910837	4.028348
1.643592	4.300371	2.226394	3.882715	1.18725	4.778705	2.297769	5.081068	2.05405	3.150558	1.597525	5.119938	0.381879	3.648657	2.453276	4.544891
1.294306	3.473001	1.526245	3.498708	0.753688	4.435522	1.971735	4.772046	2.146782	3.281257	1.655496	5.163193	-0.293009	3.057953	1.944492	4.068842
1.584693	4.048798	2.099193	3.816461	0.747002	4.389788	1.903878	4.746415	2.374877	3.526012	2.188663	5.50313	0.139637	3.409404	2.196859	4.449344
1.626352	4.141877	2.115569	3.781989	0.807558	4.46205	1.981339	4.883021	2.150004	3.270141	1.79977	5.222046	-0.483331	2.993965	1.814828	4.040307
1.464493	3.984729	1.896661	3.621294	0.526397	4.108307	1.698133	4.533889	2.054959	3.21819	1.650085	5.186431	0.326981	3.754277	2.331868	4.765193
1.561521	4.240286	2.056893	3.718301	0.958236	4.455193	1.992349	4.802346	2.445782	3.588387	2.304759	5.582974	-0.044189	3.279885	2.019747	4.23181
1.561521	4.409641	2.165863	3.781239	1.219074	4.759324	2.188726	5.108084	2.16851	3.275027	1.73593	5.20228	-0.122262	3.195854	1.96052	4.129296
0.885672	2.827624	0.937864	2.888903	1.24431	4.804926	2.270125	5.152364	2.258119	3.394596	1.816752	5.247326	0.008835	3.306949	1.974743	4.169521
1.499917	4.012989	2.00554	3.588073	0.842779	4.323733	1.921878	4.722422	2.807222	4.084684	2.979388	6.073035	0.814268	4.077932	2.652095	5.018285
1.254244	3.380627	1.46596	3.240083	1.055801	4.547492	2.057135	4.86087	2.670386	3.87005	2.610581	5.74637	0.764891	4.075346	2.751167	5.227028
1.818715	4.421004	2.40457	3.911919	1.491526	4.994763	2.51223	5.312256	2.163395	3.211653	1.476416	5.017098	0.087272	3.586171	2.253039	4.730789
1.175444	3.150845	1.40532	3.17634	0.926776	4.461822	2.090232	4.894637	2.529588	3.635381	2.234006	5.530097	1.148345	4.42567	3.018387	5.531544
2.02047	4.743358	2.69813	4.135922	0.772414	4.343987	2.009051	4.828316	2.62271	3.767754	2.350551	5.607461	0.192621	3.583225	2.419316	4.653873
1.649761	3.989759	2.115569	3.687383	0.873118	4.409392	2.049646	4.897326	2.854776	4.066078	2.839401	5.971566	0.046655	3.547286	2.384613	4.636375
1.637314	4.103009	2.149713	3.752524	1.115951	4.7181	2.320585	5.207264	2.827754	4.182224	2.689904	5.962336	-0.919038	2.744281	1.788116	3.831806
1.85784	4.571341	2.372723	3.983432	1.18086	4.824154	2.421917	5.3404	2.461133	3.733949	1.812913	5.353781	-1.495469	2.181432	1.400629	3.345212
2.147537	5.18417	2.977468	4.378569	1.587254	5.168292	2.770442	5.686987	3.130311	4.637423	3.265467	6.363254	-0.983479	2.674918	1.753686	3.877233
1.450621	3.598881	1.582251	3.50009	1.73215	5.20769	2.83825	5.807856	3.221937	4.786617	3.352762	6.474366	-0.511579	3.06351	2.19944	4.391232
2.487649	5.624917	3.173306	4.607923	1.79468	5.320282	3.000461	5.893078	2.77773	4.23983	2.397589	5.84385	1.875913	4.961366	3.956559	6.510237
1.742283	3.760485	1.724298	3.598597	2.315708	5.742184	3.401713	6.437593	3.150445	4.697114	3.178473	6.379084	1.197601	4.515686	3.528544	5.83746
2.379146	5.069535	2.912558	4.408085	1.625663	4.956457	2.657439	5.592777	2.537455	3.874191	1.916026	5.461747	0.119929	3.494128	2.697318	4.651032
2.087212	4.237222	2.081415	3.79328	2.051871	5.286629	3.078267	5.984518	2.914362	4.24114	2.534303	5.824838	1.539912	4.653028	3.808181	5.970257
2.396567	4.864303	2.685827	4.116918	2.189688	5.46274	3.265057	6.0763	3.077744	4.383738	2.852608	6.017143	0.468082	3.727766	3.042027	5.033536
2.240444	4.31191	2.184085	3.793713	1.909186	5.263272	3.069894	5.934699	3.52541	4.885733	3.815247	6.582554	-0.337717	3.040305	2.323927	4.197512
2.909907	5.726969	3.459913	4.57339	1.913418	5.244084	3.095568	5.991946	3.196356	4.422257	3.032883	6.101161	0.764444	4.075346	3.154992	5.325963
2.450346	4.962316	2.609934	3.95567	1.774772	5.114104	3.072361	5.945405	3.219237	4.517905	3.177548	6.243198	1.148966	4.344629	3.345821	5.457438
2.359926	4.728648	2.391176	3.854352	1.392173	4.7339	2.717305	5.576113	3.384384	4.730441	3.381888	6.424167	0.319535	3.727766	2.725298	4.823397
2.252653	4.459883	2.090327	3.661389	1.454945	4.760369	2.718854	5.627164	3.076525	4.419901	2.794523	6.032776	0.475934	3.704343	2.701204	4.669237
2.469669	5.196507	2.563748	4.115177	1.891796	5.178586	3.019935	5.96798	3.31448	4.693935	3.237249	6.30529	0.185543	3.511058	2.43528	4.49443
2.087212	4.67519	2.12448	3.792364	2.044687	5.35037	3.186517	6.166283	3.384955	4.876259	3.352446	6.370015	-0.405058	3.122186	1.918146	4.000193
2.053431	4.801735	2.218261	3.850284	1.728004	5.130607	3.051519	6.041628	3.198703	4.720309	3.122664	6.230292	-0.755188	2.88806	1.616508	3.692594
1.710002	4.297457	1.775628	3.62774	1.77504	5.120415	3.058241	6.090702	2.849056	4.333285	2.401258	5.781172	-0.889597	2.658805	1.440028	3.429796
1.490045	4.21776	1.675969	3.497297	1.982202	5.331671	3.13292	6.242236	3.083214	4.594862	2.893543	6.074993	-1.402924	2.268083	1.051747	3.108054
1.500195	4.262979	1.684964	3.529552	1.740778	5.153691	2.980717	6.0561	2.735251	4.225838	2.34625	5.629161	-0.053047	3.436347	2.070802	4.434332
1.637314	4.694689	2.125011	3.819243	1.489568	4.968725	2.821951	5.926043	2.553037	3.926318	1.868773	5.312364	-1.062255	2.571754	1.263285	3.488242
1.200516	3.922468	1.395824	3.36895	1.995324	5.395017	3.169683	6.284541	3.014894	4.516061	2.9228	6.048857	-0.044189	3.453114	2.021715	4.51447
1.186226	3.8459	1.433398	3.335848	1.339697	4.811858	2.632049	5.734457	2.62271	4.060441	2.154392	5.487639	-1.19038	2.493245	1.092568	3.488242
1.405875	4.303006	1.878406	3.59415	1.242626	4.679431	2.553105	5.649505	2.664104	4.174479	2.051821	5.532544	-0.231462	3.197034	1.851295	4.308991
1.200516	3.773314	1.57817	3.304842	1.841515	5.182895	3.034857	6.125371	2.596399	4.002898	1.977165	5.314286	-0.028592	3.428539	1.916737	4.595949
1.572008	4.337512	2.091167	3.657893	1.469148	4.852005	2.790463	5.79706	2.870809	4.381909	2.452861	5.672248	0.195152	3.343029	2.149254	4.7018
1.415957	3.827615	1.946945	3.431682	1.229973	4.587784	2.506062	5.558678	2.826875	4.202584	2.319722	5.456471	-0.485936	2.820475	1.732942	4.091406
1.27256	3.595846	1.624756	3.176296	1.768622	5.073395	2.995644	5.963311	3.151204	4.551531	2.889023	5.87428	-0.106311	3.031466	1.993057	4.344757
1.753468	4.245616	2.234463	3.653375	1.740303	4.960681	2.96378	5.923878	3.082991	4.381548	2.809125	5.715001	-0.051626	3.201728	2.147504	4.630424
2.045362	4.830323	2.80492	3.975781	0.959038	4.233336	2.293598	5.231018	3.056964	4.422257	2.689904	5.672499	0.119929	3.288984	2.395389	4.74016
1.755881	4.048601	2.133871	3.56221	1.786751	5.036525	2.979748	5.890719	3.35978	4.827151	3.088612	6.038057	0.854024	3.969327	3.005116	5.393032
2.089482	4.482252	2.450472	3.885608	2.267722	5.51548	3.362805	6.335594	3.337323	4.787057	3.179167	6.042782	0.218108	3.344756	2.570345	4.675504
2.573381	5.188943	3.244095	4.367816	2.131427	5.364708	3.256446	6.229964	3.454518	4.971512	3.38181	6.295345	-0.310178	2.956164	2.090626	4.240492
2.41795	4.999142	2.962626	4.279569	1.803114	5.114104	3.041729	5.947569	3.311425	4.887348	3.084331	6.210242	1.246047	4.131558	3.298807	5.651009
2.444571	4.874127	2.905169	4.234656	1.854992	5.152335	3.156435	6.07799	3.150445	4.53727	2.833425	5.964847	0.556711	3.737622	2.845507	5.098663
2.299569	4.798598	2.711665	4.107605	1.861579	5.174069	3.045512	5.987186	3.361268	4.863719	3.352855	6.311991	0.75682	3.923177	2.92433	5.099749
1.72929	3.649083	1.727065	3.432005	1.782806	5.239302	2.981157	6.011991	3.082517	4.419949	2.836569	5.885638	0.179088	3.409404	2.393282	4.442385
1.896799	4.316401	2.311447	3.655759	1.695778	5.152335	2.971394	5.922807	3.081457	4.492093	2.948548	5.973655	0.711937	3.82615	2.784964	4.891536
1.526154	3.514244	1.615576	3.176296	1.18086	4.547492	2.468068	5.435077	2.896526	4.272275	2.604342	5.638494	1.53294	4.492948	3.332837	5.673503
1.699619	4.07875	1.989295	3.430618	1.362442	4.810229	2.605715	5.620788	2.802384	4.173122	2.427051	5.657015	1.293094	4.279722	3.116906	5.416507
1.726726	4.077281	2.105566	3.394861	1.61922	5.075577	2.845923	5.81854	2.851203	4.159137	2.546711	5.675493	0.62059	3.765017	2.644095	4.813018
1.952288	4.712194	2.450465	3.712462	1.367942	4.864269	2.684776	5.677177	2.711753	4.001928	2.199519	5.367533	0.290484	3.469171	2.55089	4.750398
1.326855	3.231683	1.344257	2.985267	1.474691	4.980062	2.729257	5.774485	2.551203	3.826961	1.836912	5.086787	0.171908	3.530312	2.496707	4.633585
2.146746	4.967912	2.762079	3.936829	0.88282	4.414819	2.266293	5.230872	2.783054	4.08826	2.325576	5.423759	0.667659	3.931814	2.874047	4.987866
1.538348	3.492062	1.460875	3.112169	1.786063	5.346534	3.081634	6.166283	3.057297	4.564535	2.829332	5.902309	0.432146	3.68934	2.782268	4.844967
2.633737	5.500922	3.12749	4.333821	1.424399	5.050643	2.769218	5.80997	3.337978	4.926657	3.294941	6.25697	0.039801	3.381006	2.537113	4.509475
2.492767	4.973882	2.653577	4.089459	1.841866	5.496456	3.150684	6.252745	2.815891	4.362962	2.062324	5.532782	1.635764	4.777686	3.872956	6.003631
2.500868	4.677725	2.53655	4.052039	1.786751	5.392569	3.085132	6.262355	3.335781	4.98878	3.059933	6.249803	-0.572012	3.06351	2.38534	4.205093
2.57851	4.484731	2.323184	4.026491	1.913418	5.583365	3.249358	6.437752	3.334777	5.029556	2.912642	6.153132	0.264456	3.737622	2.966251	4.838864
3.572066	6.394041	3.946277	5.040356	2.013879	5.652128	3.358351	6.532124	3.022344	4.639335	2.138086	5.740813	1.635032	5.006676	4.023524	6.152828
2.564085	4.400962	2.227464	3.894626	1.917602	5.598462	3.301412	6.528041	3.261838	4.961008	2.617194	6.049098	0.36916	3.93341	3.187117	5.16464
3.036285	5.30005	3.021059	4.348765	1.313417	5.046963	2.854542	6.054465	3.738958	5.56056	3.498467	6.6994	1.245445	4.663739	3.927052	5.95601
3.066355	5.384094	2.94753	4.350841	1.278191	5.033042	2.829115	6.101143	3.643507	5.367576	3.321822	6.548011	1.003134	4.493196	3.6734	5.764507
2.826915	5.157161	2.658234	4.052039	1.367892	5.202168	2.943869	6.217416	3.762463	5.526193	3.586523	6.665782	0.421351	3.912938	3.224284	5.132392
2.370381	4.423643	2.013403	3.596321	1.67748	5.443236	3.229373	6.383449	3.7388	5.478974	3.498467	6.664719	-1.378166	2.462444	1.848474	3.533721
2.697285	5.196507	2.509355	3.981019	1.549989	5.341123	3.121287	6.370946	3.217766	4.850293	2.588234	5.947621	-0.196615	3.39048	2.725298	4.697546
2.117724	4.348163	1.895965	3.46445	1.472855	5.255962	3.075949	6.33737	3.40824	5.104883	3.265907	6.242069	-0.488589	3.1327	2.50473	4.599917
1.975104	4.353142	1.82965	3.39753	1.659505	5.368835	3.079404	6.341138	3.10521	4.654027	2.745959	5.827298	0.66893	4.032805	3.200182	5.390736
2.141798	4.836452	2.014643	3.655187	1.360586	5.056657	2.848363	6.062203	3.104955	4.750397	2.857618	5.90868	0.237266	3.66428	2.980394	5.277727
1.881695	4.424194	1.762187	3.463012	1.676817	5.451233	3.115552	6.36423	2.988322	4.673763	2.566688	5.75943	-0.352378	3.196975	2.461766	4.56145
2.044665	4.802195	2.074146	3.722039	1.182476	4.872895	2.602806	5.836241	2.893524	4.563097	2.296245	5.640761	-0.056905	3.482119	2.630917	4.937134
1.917863	4.699692	2.031696	3.657893	1.42974	5.145091	2.81821	6.074411	2.987595	4.71693	2.709921	5.906036	0.136462	3.482119	2.715949	4.968527
1.647379	4.016547	1.564127	3.401146	1.18086	4.872895	2.54707	5.740267	3.011511	4.680343	2.76979	5.955938	-1.002632	2.674918	1.977448	4.203402
2.108586	5.209995	2.690877	4.071032	1.738558	5.410058	3.062433	6.23086	2.774318	4.367959	2.169998	5.554911	-0.07187	3.381953	2.50473	5.09449
1.791932	4.813355	2.23618	3.754411	1.615065	5.257157	3.007247	6.123083	2.730944	4.205274	2.157931	5.500838	-0.667558	2.786399	2.049882	4.576364
1.807081	4.933068	2.396703	3.816461	1.242626	4.925552	2.683387	5.733655	2.77607	4.264663	2.240008	5.49686	0.08551	3.455459	2.579508	5.326576
1.572008	4.510951	1.920857	3.496254	1.18725	4.820114	2.727817	5.756987	3.027787	4.537145	2.340972	5.601147	0.908451	4.01151	3.043727	5.854823
2.02308	5.66783	2.705322	4.07206	1.796806	5.200413	3.392118	6.353721	3.453368	5.049957	2.678635	5.815645	0.808483	3.886504	2.966249	5.874919
1.519743	4.807785	1.989119	3.56104	1.946146	5.28971	3.654062	6.581911	3.277345	5.099332	2.025244	5.561027	-0.31552	2.921551	2.141258	4.660132
1.743606	5.248329	2.382721	3.9102	2.341235	5.553249	4.06839	7.012409	3.397026	5.293076	2.186646	5.6511	0.117859	3.289179	2.450068	5.25607
1.461326	4.968109	1.929899	3.823505	2.37509	5.469861	4.340703	7.264985	3.930532	6.117821	2.69869	6.02049	-0.69454	2.561024	1.788116	4.347565
1.512094	5.087155	1.861417	3.855582	2.732961	5.587417	4.737597	7.65541	4.64822	7.096715	3.854785	6.966821	0.655303	3.618879	2.708683	5.810861
1.000699	4.186561	1.075242	3.402349	2.304776	5.119878	4.409047	7.313825	4.225807	6.693955	2.956637	6.448569	-1.04579	2.161473	1.486474	4.208191
1.377329	5.105427	1.696418	3.923455	2.513205	5.304573	4.639882	7.572606	4.623875	7.351372	3.675774	6.95066	0.473904	3.38519	2.426298	5.492371
0.940449	4.233191	0.949135	3.500185	2.47907	5.39992	4.758753	7.649231	4.20113	6.861638	3.022555	6.522802	0.471705	3.449576	2.555892	5.591511
1.127979	4.58683	1.361485	3.824579	2.777377	5.728704	4.997567	7.956631	4.052551	6.841377	2.752282	6.416641	-0.056905	3.087111	2.038344	4.900819
0.824291	4.007888	0.904846	3.565551	2.560743	5.639266	4.780906	7.899952	4.102476	7.006409	3.171448	6.772797	0.289406	3.355982	2.327312	5.115772
1.459775	5.203563	1.930098	4.349811	2.355174	5.61773	4.646439	7.736219	4.053438	7.084523	3.378192	6.934084	0.907194	3.934775	2.774047	5.83746
1.018693	4.444714	1.188519	3.893255	2.141064	5.636903	4.390256	7.551601	3.931584	6.884199	3.262864	6.914159	-0.040954	3.212468	2.070802	4.825813
1.268234	4.677462	1.523233	4.08407	1.919735	5.485895	4.066793	7.30885	3.786856	6.677484	3.177801	6.777179	0.572928	3.779323	2.636233	5.522804
1.136017	4.34323	1.30212	4.091529	1.720539	5.391643	3.867225	7.191119	3.691028	6.636198	3.147574	6.848392	-0.679056	2.786399	1.697349	4.432721
1.870521	5.587692	2.334727	4.880884	1.320241	5.081761	3.563299	6.887089	3.547756	6.452528	2.971314	6.817654	-0.31552	3.113293	1.96892	4.665985
1.480847	4.705134	1.472714	4.361985	1.672438	5.584818	3.882251	7.361506	3.786617	6.821066	3.410949	7.11333	-0.007608	3.436347	2.264921	4.91923
1.607828	4.899237	1.821165	4.596492	1.549336	5.644499	3.735698	7.28443	4.024085	7.096711	3.904489	7.520713	-0.707842	2.943573	1.88532	4.268293
