fnirSoft:	Exported Text File
Version:	4.2
ExportDate:	12/18/2023 11:29:16 AM
VariableInfo
Name:	oxygraph29.hbt.Block1
Size:	1838 x 16
Type:	Numeric
Content:	Hemoglobin
Date:	12/18/2023 11:29:05 AM
Notes:	Total-hemoglobin concentration changes data saved by Oxygraph from file C:\Users\Anette Johansson\Documents\COBI Studio Data\friska kontroller\2034K\ANETTE_2034K_1_12130816.oxy
Labels:	HBT	DATA
VariableData
Hemoglobin	Hemoglobin	Hemoglobin	Hemoglobin	Hemoglobin	Hemoglobin	Hemoglobin	Hemoglobin	Hemoglobin	Hemoglobin	Hemoglobin	Hemoglobin	Hemoglobin	Hemoglobin	Hemoglobin	Hemoglobin
Optode1	Optode2	Optode3	Optode4	Optode5	Optode6	Optode7	Optode8	Optode9	Optode10	Optode11	Optode12	Optode13	Optode14	Optode15	Optode16
-0.512827	-0.50808	-0.107378	-0.268083	-0.653434	-0.305412	-0.971646	-1.977613	-0.533265	-1.572857	-0.262932	0.052655	-0.879878	-0.409795	-1.223369	-0.995179
-0.351689	-0.334026	0.069634	-0.144343	-0.886618	-0.509803	-1.180021	-2.288445	-0.394094	-1.483285	-0.00153199999999998	0.219299	-1.202769	-0.700748	-1.561036	-1.392209
-0.20828	-0.092584	0.271798	-0.014739	-0.863939	-0.476243	-1.233139	-2.4367	-0.453831	-1.591617	-0.142301	0.195681	-1.49882	-0.93332	-1.785711	-1.667834
-0.374155	-0.352014	0.021986	-0.204563	-0.7325	-0.417231	-1.180947	-2.46739	-0.714473	-1.872717	-0.489281	-0.083284	-1.086485	-0.684904	-1.582862	-1.431072
-0.960993	-0.535572	0.147338	-0.715436	-0.991428	-0.145332	-1.180947	-2.308203	-1.508477	-2.776253	-1.201882	-0.012765	-0.900543	-0.274846	-1.866431	-1.303634
-1.219907	-0.064069	0.755999	-0.89164	-1.778711	-0.045413	-1.515795	-2.270969	-2.149912	-3.48555	-1.464171	0.397551	-1.517953	-0.480464	-2.646769	-1.813497
-1.713743	-0.277382	0.8331	-1.230981	-2.039188	0.221753	-1.608405	-2.121988	-2.805656	-4.082521	-1.977407	0.628435	-2.86931	-1.327974	-3.806865	-2.643292
-2.337527	-0.852911	0.862509	-1.871618	-2.72253	0.409054	-2.077397	-2.18905	-3.200338	-4.352039	-1.849921	1.307715	-3.323814	-1.143805	-4.283615	-2.901186
-2.758441	-0.940108	1.094082	-1.763419	-3.403098	0.709601	-2.346925	-2.122473	-3.453953	-4.572013	-1.6911	1.877882	-2.858592	-0.282968	-4.427953	-3.075297
-2.778056	-0.667357	1.461268	-1.305937	-3.924034	0.86073	-2.430401	-2.015548	-3.400786	-4.509373	-1.299995	2.463431	-2.924325	0.011761	-4.96376	-3.692587
-3.136233	-0.805845	1.403053	-1.078044	-4.191146	1.187289	-2.347488	-1.753303	-3.421106	-4.369745	-1.181363	2.926353	-2.886068	0.364754	-5.214133	-4.017747
-3.269841	-0.80182	1.35312	-0.925401	-4.318413	1.49431	-2.164708	-1.396557	-3.360741	-4.075549	-1.07411	3.30486	-2.638015	0.852153	-5.226946	-3.993545
-3.402081	-0.563938	1.543748	-0.718485	-4.492482	1.611169	-2.062368	-1.130473	-3.384458	-3.797091	-1.097764	3.443109	-2.427529	1.296963	-5.141402	-4.032955
-3.401423	-0.25539	1.617706	-0.548971	-4.492482	1.940914	-1.801975	-0.726498	-3.467706	-3.623763	-1.463984	3.388351	-1.905503	1.949666	-4.926564	-3.704968
-3.251287	0.233173	1.855326	-0.275168	-4.374937	2.350023	-1.453833	-0.215659	-3.136869	-2.955054	-0.967731	3.883131	-2.375699	1.755978	-5.137898	-4.016643
-3.12045	0.406667	1.780877	-0.169965	-4.066098	2.797864	-1.132578	0.234931	-2.901762	-2.404946	-0.770587	4.187051	-2.083262	2.093651	-4.853125	-3.625449
-2.797219	1.089928	2.120907	0.207547	-4.265906	2.706358	-1.24899	0.256317	-2.67153	-1.992867	-0.532391	4.47712	-1.50703	2.701928	-4.309277	-2.874952
-2.490865	1.552375	2.332673	0.605761	-3.833774	3.266183	-0.867322	0.763798	-2.373658	-1.575498	-0.229135	4.847856	-1.67451	2.701928	-4.241612	-2.762492
-2.047117	2.101538	2.769816	1.071761	-3.403098	3.879404	-0.563035	1.206228	-2.126448	-1.248521	-0.011488	5.109978	-1.939415	2.618765	-4.241716	-2.684061
-1.752793	2.326978	2.928292	1.390959	-3.342715	3.989811	-0.54855	1.279434	-1.929426	-1.109858	0.225974	5.311436	-1.824169	2.815604	-3.98186	-2.320374
-1.47133	2.618733	3.172358	1.717726	-3.201808	4.158369	-0.517282	1.276273	-1.889403	-1.402445	0.187958	5.268434	-1.437707	3.258353	-3.581927	-1.712075
-1.335851	2.659161	3.228922	1.826906	-3.019568	4.366717	-0.45529	1.221883	-2.003452	-2.054775	-0.110658	4.940461	-1.544092	3.197107	-3.557591	-1.644583
-1.213983	2.644207	3.310648	1.951622	-3.224631	4.070447	-0.752575	0.765958	-1.839935	-2.4814	0.076101	4.950096	-1.75163	3.119347	-3.642924	-1.69309
-1.070849	2.734988	3.503669	2.159615	-3.063055	4.111833	-0.772653	0.562203	-1.82252	-3.053297	0.017108	4.713543	-1.896238	2.934246	-3.746516	-1.797118
-0.994515	2.618733	3.532942	2.20504	-3.268094	3.782683	-1.082517	0.086085	-1.788641	-3.527647	-0.027401	4.470021	-1.657113	3.086935	-3.585917	-1.619914
-1.074901	2.276589	3.283685	2.048673	-3.100543	3.731032	-1.173815	-0.197798	-1.648898	-3.837638	0.125995	4.308283	-1.905173	2.850551	-3.683415	-1.653933
-1.173487	1.902051	3.008989	1.895623	-3.210405	3.394253	-1.495758	-0.677684	-1.56219	-4.13776	0.195943	4.06124	-1.671938	3.010345	-3.557208	-1.473043
-1.155096	1.87711	2.981817	1.799002	-3.216204	3.156734	-1.739039	-1.071479	-1.726183	-4.586619	-0.110658	3.611525	-1.556003	3.039891	-3.500109	-1.323917
-1.254407	1.671182	2.900493	1.720321	-3.244944	2.986419	-1.926352	-1.362438	-1.689361	-4.798124	0.022622	3.449302	-1.613083	2.95571	-3.533231	-1.283938
-1.273683	1.542111	2.818045	1.626818	-3.404972	2.630841	-2.119897	-1.638509	-1.804049	-5.125336	-0.168815	3.075721	-1.889566	2.625338	-3.72359	-1.479479
-1.37603	1.382364	2.711844	1.520658	-3.370726	2.535154	-2.248072	-1.770265	-1.85523	-5.266681	-0.219259	2.927569	-2.038313	2.464091	-3.828892	-1.541537
-1.59315	1.121241	2.466704	1.274614	-3.381056	2.360948	-2.378233	-1.918014	-1.828829	-5.273889	-0.172168	2.812629	-1.66159	2.748758	-3.561526	-1.156278
-1.597611	1.098327	2.637767	1.291337	-3.247712	2.503434	-2.289746	-1.931749	-1.788641	-5.393785	-0.402515	2.664458	-1.707126	2.625338	-3.710723	-1.279801
-1.653598	1.121241	2.573816	1.157244	-3.296629	2.422375	-2.37519	-2.065736	-1.736299	-5.365415	-0.104837	2.809415	-1.877268	2.392589	-3.810661	-1.392209
-1.498331	1.427146	2.905237	1.355484	-3.32551	2.399795	-2.4022	-2.122515	-1.817668	-5.509493	-0.096819	2.727714	-1.781258	2.508245	-3.81258	-1.303364
-1.557529	1.204577	2.822292	1.242644	-3.312612	2.328934	-2.462541	-2.268691	-1.861045	-5.610931	-0.092897	2.693182	-1.805933	2.468012	-3.760274	-1.218316
-1.638127	0.96958	2.779078	1.168412	-3.403091	2.150668	-2.577023	-2.473514	-1.875712	-5.726121	-0.146	2.610926	-1.641335	2.537917	-3.635597	-1.073774
-1.578708	0.923459	2.803928	1.20992	-3.280897	2.223671	-2.533712	-2.562911	-1.837252	-5.771354	-0.126483	2.573007	-1.730393	2.375703	-3.637139	-1.113653
-1.559146	0.919436	2.805686	1.150607	-3.479907	1.921919	-2.798727	-2.917503	-1.751001	-5.781741	0.0629419999999999	2.640276	-1.828518	2.335198	-3.638176	-1.048714
-1.518628	0.803648	2.661626	1.083865	-3.378518	1.934028	-2.772936	-3.050338	-1.693639	-5.760809	0.086323	2.610628	-1.986248	2.204719	-3.721522	-1.147665
-1.340542	1.082247	2.906478	1.235989	-3.231983	1.972244	-2.744475	-3.089099	-1.542383	-5.610931	0.372452	2.771349	-1.469446	2.603142	-3.263579	-0.591435
-1.419929	0.832738	2.661626	1.10151	-3.124385	2.022995	-2.717422	-3.095179	-1.556395	-5.618006	0.209983	2.657605	-1.482602	2.549239	-3.250637	-0.672176
-1.42057	0.87363	2.747337	1.134834	-3.270383	1.804007	-2.895946	-3.2357	-1.45242	-5.428681	0.358429	2.771349	-1.662136	2.367222	-3.327618	-0.797335
-1.558322	0.663025	2.499338	1.026722	-3.197608	1.769307	-2.884059	-3.164073	-1.377423	-5.273746	0.37039	2.766889	-1.680425	2.272123	-3.341658	-0.945764
-1.637508	0.576413	2.50207	1.004884	-3.195938	1.773377	-2.907507	-3.125973	-1.456594	-5.274022	0.112414	2.57986	-1.864427	2.077316	-3.409038	-1.08658
-1.813435	0.319126	2.335467	0.936768	-3.262177	1.626293	-2.992839	-3.151879	-1.434508	-5.178715	0.147728	2.558513	-2.094887	1.920346	-3.541089	-1.287425
-1.715182	0.603246	2.576998	1.130195	-3.096839	1.714032	-2.938574	-3.044569	-1.395528	-5.072423	0.165305	2.566989	-2.091189	1.831593	-3.48683	-1.318773
-2.009044	0.132034	2.282525	0.934563	-3.218726	1.574629	-3.062427	-3.151879	-1.434508	-5.047589	0.24311	2.609231	-1.954208	1.917586	-3.372701	-1.201006
-2.028856	0.127614	2.417258	1.048653	-3.29287	1.469656	-3.134362	-3.268098	-1.433557	-5.02615	0.292745	2.571258	-1.966214	1.945131	-3.406481	-1.194236
-2.203467	-0.0584769999999999	2.254984	0.897345	-3.524462	1.104471	-3.387731	-3.552719	-1.550168	-5.182256	0.0985489999999999	2.363558	-1.895456	1.9075	-3.345012	-1.225903
-2.492757	-0.544087	1.911066	0.631427	-3.373354	1.186166	-3.341933	-3.57037	-1.460458	-5.125613	0.179478	2.367746	-2.524086	1.322649	-3.795333	-1.840244
-2.5695	-0.651515	1.831551	0.481907	-3.361589	1.076993	-3.387731	-3.71851	-1.296127	-5.015657	0.373042	2.427985	-2.154529	1.613643	-3.525192	-1.542973
-2.760531	-1.018773	1.541121	0.275002	-3.451148	0.850954	-3.499535	-3.917174	-1.282156	-5.02631	0.237991	2.264415	-2.443226	1.266133	-3.707003	-1.898877
-2.607978	-0.817975	1.675763	0.344197	-3.403091	0.783054	-3.538851	-3.969555	-1.397417	-5.044066	0.172883	2.142123	-2.387182	1.264353	-3.583851	-1.813497
-2.569319	-0.852911	1.565835	0.221248	-3.398134	0.705576	-3.538005	-3.928917	-1.563088	-5.18213	-0.074827	1.836558	-2.223779	1.313652	-3.444984	-1.712075
-2.242674	-0.567678	1.864966	0.411953	-3.209565	0.788948	-3.398534	-3.684986	-1.613828	-5.132559	-0.181569	1.723964	-2.108786	1.332315	-3.206545	-1.516044
-2.202166	-0.601861	1.747894	0.262034	-3.366483	0.491574	-3.524096	-3.72234	-1.643685	-5.046909	-0.13522	1.622072	-2.642774	0.868645	-3.552636	-1.842565
-2.087367	-0.587935	1.864966	0.319224	-3.400628	0.405236	-3.551456	-3.617105	-1.671842	-4.915948	-0.196844	1.624607	-2.056717	1.388275	-3.062824	-1.314074
-2.143605	-0.737239	1.748838	0.18477	-3.485771	0.309823	-3.553114	-3.568379	-1.623078	-4.791051	-0.126648	1.642601	-2.08796	1.296963	-2.971674	-1.348295
-2.048377	-0.663518	1.861748	0.26334	-3.507509	0.269056	-3.526074	-3.455848	-1.624938	-4.708743	-0.147182	1.67572	-1.916568	1.430003	-2.919057	-1.201006
-2.144051	-0.844238	1.722771	0.105739	-3.500345	0.219869	-3.53844	-3.398883	-1.477777	-4.485724	0.189847	1.93694	-1.492472	1.814802	-2.551572	-0.832071
-2.164815	-0.932036	1.759686	0.094447	-3.44681	0.260753	-3.496712	-3.344675	-1.438119	-4.362917	0.239951	2.042858	-2.11582	1.255618	-3.045146	-1.426278
-2.356526	-1.392972	1.38277	-0.171182	-3.507509	0.138527	-3.567651	-3.436221	-1.388837	-4.319345	0.343749	2.174948	-2.053283	1.388275	-3.013816	-1.372622
-2.202166	-1.11235	1.673062	-0.00726399999999999	-3.48088	0.13891	-3.580478	-3.472485	-1.46401	-4.409854	0.148058	2.069234	-1.752648	1.563968	-2.801594	-1.201273
-2.259743	-1.255821	1.591756	-0.041561	-3.361414	0.252113	-3.510178	-3.473277	-1.276149	-4.246652	0.432183	2.269209	-2.245026	1.172847	-3.115087	-1.601171
-2.164287	-1.226338	1.570974	-0.012932	-3.261576	0.309823	-3.456977	-3.510691	-1.318369	-4.264876	0.365518	2.222606	-2.363052	1.04102	-3.240847	-1.721823
-2.08584	-1.186391	1.697827	0.065412	-3.114608	0.391177	-3.402018	-3.526341	-1.361166	-4.366507	0.336508	2.182914	-1.828362	1.496812	-2.894436	-1.294083
-2.067653	-1.10518	1.732144	0.058011	-3.112162	0.35954	-3.401666	-3.628899	-1.383482	-4.464144	0.160266	2.02849	-2.370197	0.966938	-3.296469	-1.866646
-2.278742	-1.566819	1.354893	-0.241334	-3.224346	0.152025	-3.527457	-3.843386	-1.330416	-4.431624	0.289182	2.067017	-2.399635	0.943006	-3.327618	-1.875132
-2.203212	-1.358929	1.51945	-0.17874	-3.276258	0.030964	-3.62203	-3.968521	-1.258868	-4.380964	0.400139	2.058028	-2.155506	1.099712	-3.163871	-1.657651
-2.242294	-1.366673	1.52102	-0.16504	-3.219916	0.089496	-3.566216	-3.934766	-1.390465	-4.521065	0.174096	1.921521	-1.506589	1.630156	-2.735829	-1.152299
-2.203467	-1.36284	1.52102	-0.146081	-3.298115	-0.0630890000000001	-3.650309	-4.021436	-1.400958	-4.471031	0.211211	1.925744	-2.018101	1.205893	-3.038333	-1.581689
-2.260577	-1.428631	1.409688	-0.230149	-3.087459	0.165444	-3.457932	-3.834914	-1.476093	-4.481919	0.060748	1.873212	-2.010576	1.189469	-3.080326	-1.5718
-2.202166	-1.260218	1.512964	-0.15213	-3.200321	0.017396	-3.526699	-3.854365	-1.388837	-4.355315	0.208353	2.057434	-1.662136	1.463383	-2.848698	-1.328407
-2.221652	-1.315111	1.38277	-0.135042	-3.053111	0.178926	-3.457932	-3.736956	-1.323064	-4.210506	0.234718	2.145238	-1.59551	1.488353	-2.816549	-1.309182
-2.239752	-1.32024	1.35312	-0.128978	-3.028576	0.197167	-3.415935	-3.705859	-1.246736	-4.064784	0.323694	2.209392	-1.856598	1.321851	-3.01728	-1.499262
-2.183758	-1.116552	1.569553	0.025252	-3.131342	0.072182	-3.538005	-3.805715	-1.218796	-4.002684	0.374679	2.243938	-1.916568	1.247512	-3.097258	-1.586435
-2.319139	-1.378174	1.333849	-0.102686	-2.942222	0.229251	-3.456221	-3.767037	-1.220654	-4.013617	0.400139	2.273682	-2.006687	1.181109	-3.178133	-1.70758
-2.280346	-1.34673	1.410919	0.029053	-2.888004	0.273643	-3.38874	-3.803994	-1.220654	-4.064784	0.369854	2.216659	-1.9364	1.117797	-3.206545	-1.782338
-2.259255	-1.265085	1.48342	0.060676	-3.129343	0.0489189999999999	-3.609154	-4.069805	-1.2615	-4.181215	0.347946	2.132804	-2.018601	1.091049	-3.286065	-1.793631
-2.260924	-1.163156	1.645898	0.197868	-3.067568	0.045596	-3.634313	-4.165955	-1.257952	-4.206903	0.299971	1.990165	-1.913745	1.115578	-3.282472	-1.793631
-2.375013	-1.343116	1.535408	0.118502	-2.848024	0.192423	-3.472523	-4.093561	-1.246736	-4.225028	0.282392	1.967153	-2.111394	0.950585	-3.449169	-1.986326
-2.376959	-1.323541	1.619977	0.178625	-2.944765	0.076136	-3.567328	-4.23415	-1.315084	-4.340354	0.161037	1.748975	-2.077762	0.852762	-3.417636	-1.967368
-2.549557	-1.59834	1.329117	-0.02243	-2.876322	0.040251	-3.528329	-4.235721	-1.258868	-4.250468	0.222099	1.790666	-1.921981	0.983489	-3.30323	-1.793631
-2.531229	-1.622435	1.362358	-0.032	-3.06548	-0.161066	-3.691415	-4.36797	-1.289135	-4.220721	0.161037	1.741516	-1.895016	1.037851	-3.13969	-1.675122
-2.549557	-1.729755	1.277651	-0.07779	-2.880596	0.076136	-3.526074	-4.165069	-1.31266	-4.155715	0.018025	1.6745	-1.816832	1.063163	-3.115483	-1.58334
-2.356932	-1.365607	1.565835	0.105739	-2.901968	0.00849699999999998	-3.541802	-4.121252	-1.164526	-3.910156	0.309495	1.921453	-1.641704	1.297637	-2.925306	-1.239214
-2.376664	-1.497926	1.436666	0.067364	-2.736266	0.223933	-3.39011	-3.897724	-1.050203	-3.696895	0.415093	2.075979	-1.747345	1.190614	-3.016379	-1.345935
-2.319139	-1.432678	1.545198	0.099908	-2.642225	0.361163	-3.317505	-3.732731	-0.969462	-3.542357	0.489642	2.212253	-1.613083	1.339718	-2.896694	-1.135473
-2.338512	-1.537382	1.466506	0.098047	-2.430287	0.53623	-3.098491	-3.564441	-0.90208	-3.434835	0.497557	2.254451	-1.909501	1.057957	-3.082579	-1.297822
-2.260183	-1.420304	1.591756	0.180632	-2.545286	0.391177	-3.209434	-3.724326	-0.749171	-3.282056	0.694698	2.387371	-1.897704	1.032699	-3.044817	-1.259709
-2.280015	-1.529313	1.566983	0.142161	-2.477651	0.356328	-3.207153	-3.748416	-0.667945	-3.195998	0.769466	2.403365	-1.750984	1.197684	-2.841467	-0.895755
-2.163571	-1.264537	1.882552	0.309549	-2.402436	0.372846	-3.126651	-3.825177	-0.701775	-3.319024	0.612436	2.328676	-1.599014	1.322649	-2.707552	-0.653351
-2.31939	-1.545144	1.677252	0.115358	-2.317526	0.341999	-3.110829	-3.906677	-0.798432	-3.546175	0.39751	2.163699	-1.27133	1.517955	-2.401002	-0.27183
-2.202166	-1.342508	1.908708	0.251674	-2.241654	0.369718	-3.067871	-4.036942	-0.838896	-3.64965	0.252231	2.057434	-0.971567	1.814802	-2.193672	0.082825
-2.414289	-1.7568	1.434351	-0.060678	-2.229489	0.278012	-3.056883	-4.135049	-0.876646	-3.741907	0.241375	2.008611	-1.555735	1.322318	-2.559929	-0.365619
-2.299076	-1.633785	1.594085	0.0635	-2.304452	0.147611	-3.15472	-4.266257	-0.750026	-3.630965	0.492722	2.212253	-1.489118	1.373147	-2.455217	-0.368335
-2.259743	-1.602547	1.592875	0.048201	-2.219086	0.18351	-3.08517	-4.219367	-0.733256	-3.546175	0.506185	2.266424	-1.531408	1.322318	-2.417467	-0.485634
-2.007462	-1.319365	1.804262	0.305598	-2.050055	0.323136	-2.959422	-4.033937	-0.665	-3.345425	0.635047	2.430953	-1.836963	1.06565	-2.614015	-0.87503
-2.121733	-1.471222	1.536135	0.148333	-2.00223	0.346059	-2.94456	-3.925101	-0.696274	-3.213231	0.496611	2.442192	-1.57749	1.248947	-2.402171	-0.886451
-2.162143	-1.589696	1.380698	0.124951	-1.781007	0.586871	-2.761548	-3.649239	-0.59111	-3.000909	0.642074	2.55219	-1.56857	1.247342	-2.425613	-1.003775
-2.08584	-1.369873	1.568223	0.249726	-1.869432	0.510904	-2.844364	-3.634116	-0.706769	-3.0385	0.305139	2.403365	-1.116468	1.621778	-2.108174	-0.69281
-2.240256	-1.562428	1.329117	0.163421	-1.987043	0.40052	-2.888471	-3.639526	-0.695385	-2.936881	0.420915	2.406649	-1.45329	1.36369	-2.348462	-1.044388
-2.353114	-1.716568	1.221177	0.101464	-1.811478	0.564678	-2.789556	-3.489718	-0.764045	-3.008276	0.31624	2.34122	-1.73557	1.090332	-2.542983	-1.400944
-2.374483	-1.630793	1.328157	0.189072	-2.037714	0.360166	-2.916394	-3.623832	-0.876646	-3.128666	0.0811350000000001	2.072585	-1.271451	1.355696	-2.237733	-1.123086
-2.393363	-1.57616	1.432394	0.244873	-1.956005	0.420791	-2.886433	-3.583133	-0.813408	-3.061098	0.247416	2.163155	-1.359704	1.355039	-2.26931	-1.176677
-2.492313	-1.783812	1.255633	0.140186	-2.2522	0.103538	-3.138893	-3.85029	-0.698039	-2.963265	0.537547	2.227454	-1.948681	0.870023	-2.668521	-1.660737
-2.569635	-1.753359	1.316297	0.150057	-2.113361	0.279868	-3.054203	-3.780943	-0.747402	-3.023438	0.467212	2.159738	-1.682698	1.032699	-2.504736	-1.469438
-2.58853	-1.799602	1.312793	0.119073	-2.171633	0.161629	-3.08372	-3.840648	-0.842223	-3.207222	0.237163	1.940247	-1.856598	0.868645	-2.508564	-1.60582
-2.682862	-1.893401	1.147255	0.056355	-2.291979	0.091314	-3.20673	-3.917568	-0.787028	-3.094876	0.403316	2.087746	-1.998659	0.713329	-2.617967	-1.769743
-2.645437	-1.802508	1.201858	-0.02243	-2.314904	0.022184	-3.167988	-3.887354	-0.926584	-3.278273	0.193668	1.944772	-1.694567	0.901578	-2.46364	-1.64737
-2.511588	-1.397206	1.439343	-0.024426	-2.370286	-0.003714	-3.138548	-3.793064	-0.942389	-3.293272	0.199871	1.842712	-1.621583	0.926056	-2.350139	-1.681491
-2.665068	-1.48307	1.338341	-0.249123	-2.211643	0.158904	-2.941726	-3.525467	-0.917809	-3.203536	0.181063	1.838906	-1.464063	0.959896	-2.137156	-1.542973
-2.759267	-1.553416	1.149486	-0.347173	-2.110999	0.229251	-2.761548	-3.241314	-0.830632	-2.963178	0.297642	1.86142	-1.836963	0.680703	-2.227995	-1.633764
-2.70242	-1.375264	1.332531	-0.237199	-2.090838	0.247363	-2.677065	-2.991787	-0.674895	-2.588228	0.636274	2.098552	-1.711142	0.754138	-2.020329	-1.435217
-2.813973	-1.602066	1.09244	-0.372055	-1.992094	0.315172	-2.535695	-2.704374	-0.764851	-2.519607	0.423043	2.04948	-1.322727	1.074018	-1.528666	-0.923736
-2.52953	-1.182105	1.434351	-0.050253	-2.090838	0.215877	-2.563881	-2.559759	-0.645971	-2.255195	0.511919	2.193547	-1.416283	0.991913	-1.442043	-0.832349
-2.584334	-1.308405	1.272873	-0.125413	-1.905824	0.401335	-2.379045	-2.232133	-0.569849	-2.0277	0.625958	2.318475	-1.00062	1.355039	-0.990432	-0.316205
-2.336121	-0.885472	1.537859	0.140096	-1.735152	0.54638	-2.193962	-1.941527	-0.513161	-1.879827	0.609881	2.330806	-1.054525	1.263823	-0.89408	-0.12432
-2.334295	-0.971824	1.351701	0.0770729999999999	-1.694112	0.560963	-2.15026	-1.813966	-0.359495	-1.661699	0.847805	2.509426	-0.929559	1.305551	-0.704844	0.011251
-2.238603	-0.716782	1.405658	0.127824	-1.71204	0.560963	-2.121334	-1.749985	-0.254242	-1.548067	0.92699	2.520815	-1.199061	1.041137	-0.801783	-0.013795
-2.19948	-0.693774	1.300669	0.110883	-1.543004	0.743494	-2.006246	-1.624983	-0.347018	-1.665717	0.722134	2.432817	-0.987482	1.173651	-0.5589	0.280646
-2.025445	-0.276081	1.511938	0.309919	-1.491601	0.775435	-1.963102	-1.550432	-0.322026	-1.630643	0.841773	2.367849	-0.813275	1.346792	-0.372643	0.581209
-2.006385	-0.247531	1.406531	0.25638	-1.429946	0.848035	-1.935325	-1.465305	-0.465275	-1.786892	0.595448	2.21972	-1.185483	0.992568	-0.581134	0.291316
-1.85243	0.064585	1.572487	0.352395	-1.442773	0.807406	-1.934464	-1.441683	-0.46925	-1.802492	0.664197	2.204502	-1.091527	1.09883	-0.452651	0.486486
-1.810978	0.123067	1.407493	0.309919	-1.453034	0.787864	-1.965098	-1.397064	-0.49349	-1.798625	0.652243	2.215884	-1.338878	0.918059	-0.554618	0.388761
-1.909112	0.04183	1.251961	0.159436	-1.439989	0.759903	-1.980191	-1.366155	-0.608776	-1.876451	0.454837	2.087352	-1.102894	1.140794	-0.438884	0.599176
-1.812105	0.170413	1.253096	0.212893	-1.53538	0.723946	-2.094004	-1.332362	-0.570666	-1.779144	0.575207	2.121258	-1.127993	1.107983	-0.510108	0.573646
-1.752793	0.42081	1.357022	0.32468	-1.506943	0.819867	-2.066085	-1.263846	-0.554878	-1.693061	0.569539	2.204838	-1.157858	1.057381	-0.665169	0.55595
-1.692686	0.607318	1.432394	0.407355	-1.404007	0.971525	-1.979904	-1.113107	-0.593823	-1.665717	0.553537	2.102492	-1.221201	0.912091	-0.993542	0.346512
-1.55795	0.831715	1.653027	0.59452	-1.300672	1.126699	-1.962122	-1.010192	-0.519236	-1.552333	0.512879	2.083451	-1.081302	1.034875	-0.967446	0.516137
-1.635497	0.691768	1.488247	0.586143	-1.316329	1.064263	-1.950594	-0.982498	-0.495767	-1.50522	0.536933	1.98205	-1.054525	0.958808	-1.16497	0.45793
-1.517765	0.935307	1.673062	0.770797	-1.285229	1.108017	-1.977174	-0.951592	-0.475965	-1.41417	0.587144	2.102492	-1.113462	0.912091	-1.3114	0.39289
-1.616625	0.739882	1.568223	0.731508	-1.173987	1.227075	-1.87794	-0.865153	-0.479404	-1.37124	0.621684	2.072117	-0.895721	1.164788	-1.194837	0.651917
-1.537655	0.852169	1.752217	0.978541	-1.25428	1.186166	-1.949012	-0.968856	-0.477726	-1.367197	0.624504	2.121258	-0.933914	1.090332	-1.251716	0.567239
-1.656637	0.593698	1.6499	0.842705	-1.210279	1.208377	-1.979254	-1.010009	-0.306002	-1.148834	0.960995	2.456008	-0.88419	1.205893	-1.203963	0.603791
-1.577788	0.569617	1.727576	1.013545	-1.056974	1.375558	-1.849919	-0.913327	-0.408321	-1.24788	0.776878	2.349421	-0.72684	1.274152	-1.137862	0.62476
-1.55795	0.405315	1.701655	1.053138	-0.968376	1.492047	-1.820812	-0.88575	-0.369163	-1.200073	0.794735	2.433306	-0.8392	1.233743	-1.211778	0.552288
-1.439033	0.5114	1.939861	1.262568	-0.83475	1.615774	-1.688926	-0.768197	-0.31656	-1.160606	0.778577	2.402673	-0.8392	1.200978	-1.237699	0.480043
-1.456831	0.344185	1.907667	1.312158	-0.68797	1.769307	-1.545111	-0.646391	-0.302161	-1.112668	0.814433	2.479332	-0.75237	1.332315	-1.133842	0.562912
-1.398063	0.41556	2.094573	1.445145	-0.736877	1.702409	-1.614472	-0.681234	-0.281918	-1.082057	0.827146	2.432593	-0.8392	1.22629	-1.163841	0.480043
-1.496147	0.186186	1.959239	1.412559	-0.701064	1.755464	-1.515725	-0.604663	-0.279209	-1.025856	0.836478	2.516873	-0.795875	1.347802	-1.073367	0.486486
-1.477934	0.275729	2.12316	1.480409	-0.705643	1.678035	-1.542442	-0.601239	-0.226483	-0.938042	0.899506	2.536167	-0.892545	1.330597	-1.060288	0.472072
-1.536632	0.089082	1.988397	1.465261	-0.455572	1.873221	-1.340396	-0.373893	-0.170717	-0.788819	0.984071	2.659356	-0.521717	1.59739	-0.755234	0.712128
-1.636447	0.012112	1.887757	1.415465	-0.5531	1.681247	-1.383025	-0.40197	-0.130257	-0.651671	1.049231	2.729414	-0.595111	1.605111	-0.743362	0.677069
-1.614463	0.047073	1.933882	1.528305	-0.428615	1.790211	-1.280301	-0.271972	-0.022016	-0.444039	1.118364	2.865142	-0.471732	1.691072	-0.60762	0.712418
-1.695811	-0.125714	1.808291	1.435492	-0.471408	1.670857	-1.280768	-0.27552	0.057237	-0.302413	1.229371	2.993046	-0.355638	1.823282	-0.429907	0.741543
-1.673472	-0.034	1.905862	1.586322	-0.291857	1.863666	-1.086643	-0.059622	0.159578	-0.185606	1.232823	3.057584	-0.456642	1.681262	-0.47044	0.548172
-1.63495	0.05529	1.963347	1.598834	-0.02752	2.10027	-0.835069	0.146422	0.267613	-0.029437	1.411739	3.249031	-0.211498	1.890578	-0.251449	0.643015
-1.63495	-0.044353	1.908708	1.639258	0.0420959999999999	2.13342	-0.760257	0.199989	0.376059	0.110895	1.52552	3.339424	-0.279539	1.806969	-0.26091	0.497384
-1.538094	0.012112	2.099572	1.768508	0.108863	2.213711	-0.612004	0.281806	0.296079	0.00370399999999999	1.334961	3.23751	-0.287719	1.832444	-0.26091	0.363449
-1.457992	0.031592	2.148322	1.811581	-0.0182420000000001	2.01755	-0.727948	0.175792	0.361224	0.039917	1.391636	3.283661	-0.143611	2.017955	-0.027532	0.533706
-1.380063	0.112505	2.261509	1.880558	0.0482229999999999	2.045059	-0.668736	0.182568	0.427614	0.056506	1.408095	3.32674	0.249953	2.298113	0.320007	0.682783
-1.436837	-0.148695	2.039042	1.740631	-0.0364679999999999	1.899585	-0.701641	0.114127	0.388655	0.027834	1.362329	3.181971	0.090921	2.195442	0.257308	0.581209
-1.377427	-0.049406	2.148322	1.793804	0.020176	1.924134	-0.64171	0.167624	0.385389	0.010008	1.319225	3.138311	0.292742	2.314756	0.466917	0.679567
-1.435446	-0.195575	1.958441	1.647093	-0.106589	1.79517	-0.742362	0.12601	0.390939	0.048951	1.334961	3.077394	0.074198	2.144438	0.349697	0.480495
-1.335851	0.070629	2.199196	1.801669	-0.15354	1.721477	-0.775358	0.135834	0.48148	0.204743	1.437474	3.177828	0.255238	2.264253	0.515361	0.540112
-1.417466	-0.130214	1.962181	1.636735	-0.186843	1.643283	-0.76256	0.199499	0.440249	0.245718	1.415918	3.068322	-0.00703399999999998	2.051676	0.357001	0.338191
-1.359163	0.00745000000000001	2.047231	1.728013	-0.0422500000000001	1.842191	-0.582841	0.464725	0.582061	0.480566	1.691635	3.289878	0.014166	2.051127	0.399585	0.310048
-1.475485	-0.20583	1.748838	1.545898	-0.202763	1.621017	-0.70276	0.468473	0.723243	0.818033	1.878523	3.534498	0.150953	2.229462	0.471992	0.371359
-1.37863	-0.064069	1.806856	1.652007	-0.0900730000000001	1.754276	-0.581672	0.699846	0.639192	0.774774	1.711142	3.458795	-0.169196	1.907693	0.229975	0.093649
-1.358618	0.045479	1.753525	1.593903	-0.075024	1.75426	-0.608697	0.799153	0.614842	0.859668	1.684468	3.486987	-0.079902	1.949666	0.279752	0.165557
-1.199809	0.342469	1.913795	1.82447	-0.055318	1.773377	-0.536728	0.965264	0.65744	1.055078	1.720954	3.495371	-0.358104	1.665543	0.00334500000000001	-0.131233
-1.236742	0.320487	1.748838	1.702649	0.026197	1.847212	-0.503557	1.12735	0.696676	1.190435	1.832028	3.593763	-0.198884	1.815074	0.093795	0.032786
-1.080085	0.564572	1.887757	1.826906	0.140853	1.954226	-0.325141	1.399015	0.737103	1.335986	1.92679	3.573682	-0.401744	1.581411	-0.090969	-0.12074
-1.016598	0.708117	1.881482	1.918726	0.190947	2.028736	-0.276943	1.567525	0.65744	1.306278	1.719242	3.452085	-0.277159	1.624648	-0.028057	-0.045444
-0.917369	0.88163	1.857618	1.954254	0.151128	1.927223	-0.282329	1.638888	0.535435	1.220053	1.542522	3.24391	-0.235322	1.727319	-0.018171	0.142187
-0.85544	0.903622	1.802036	2.018402	0.264928	2.080979	-0.220488	1.789067	0.519469	1.198078	1.585472	3.294417	-0.140516	1.842293	0.071061	0.306013
-0.697405	1.175318	1.967403	2.145994	0.137936	1.937929	-0.341089	1.747954	0.498702	1.256709	1.567727	3.355228	-0.225377	1.816653	-0.028057	0.270087
-0.631869	1.238122	1.933882	2.218711	0.22405	2.037043	-0.266453	1.889458	0.431017	1.192576	1.439245	3.292075	-0.209174	1.81955	-0.044996	0.361867
-0.511091	1.37652	1.962181	2.236542	0.344122	2.149961	-0.263107	1.977428	0.605617	1.462299	1.759532	3.583301	-0.166493	1.934894	0.025873	0.661083
-0.369159	1.624698	2.069407	2.39094	0.370381	2.233067	-0.190428	2.081132	0.590623	1.494688	1.735819	3.527078	0.0856239999999999	2.138958	0.147776	1.008978
-0.101639	1.935658	2.228559	2.629476	0.436687	2.360738	-0.096738	2.252983	0.549219	1.442603	1.527712	3.483748	0.425855	2.47995	0.474842	1.561532
0.127013	2.205899	2.415108	2.857392	0.305968	2.230203	-0.188437	2.21821	0.693365	1.664501	1.742636	3.604611	0.1302	2.35794	0.320007	1.644031
0.186124	2.293438	2.39199	2.887845	0.635667	2.586768	0.14729	2.599486	0.833163	1.935053	1.846948	3.767945	0.219957	2.528795	0.402102	1.960935
0.105961	2.021484	2.121987	2.713184	0.684273	2.575476	0.222825	2.733053	0.923753	2.028536	1.902083	3.874603	0.78794	3.048057	0.864856	2.737503
0.207176	2.140066	2.23371	2.803833	0.813326	2.769103	0.407927	2.960789	1.009785	2.218239	1.92679	4.039597	0.519481	2.874894	0.648358	2.63586
0.377411	2.391881	2.390742	2.932871	0.709721	2.640013	0.332036	2.911313	1.202622	2.5013	2.236374	4.341748	0.826537	3.187527	0.874768	3.118905
0.629699	2.747186	2.659263	3.178188	0.651635	2.629453	0.335476	2.955839	1.354128	2.714524	2.369601	4.487111	0.810602	3.161985	0.83229	3.187833
0.672563	2.715888	2.632532	3.156923	1.014166	2.998727	0.629144	3.2508	1.370901	2.756014	2.279455	4.533581	0.56548	3.076198	0.694154	3.203058
0.846284	2.980651	2.791721	3.312557	1.05665	3.010632	0.693518	3.334608	1.447003	2.827789	2.32545	4.55406	0.71417	3.206344	0.777356	3.449004
0.905506	2.929468	2.794363	3.382481	1.206988	3.192848	0.850617	3.511998	1.52054	2.923786	2.286938	4.649525	0.791933	3.310282	0.869773	3.611673
0.911274	2.899033	2.736445	3.373674	1.20031	3.12553	0.889831	3.518785	1.568814	3.000074	2.236665	4.722129	1.067638	3.619077	1.070501	3.866189
1.057293	3.030795	2.846436	3.55121	1.26268	3.226984	0.99029	3.653553	1.729395	3.220604	2.530016	4.93145	0.91023	3.487468	0.92893	3.717445
1.058795	2.955659	2.818702	3.532855	1.354546	3.261155	1.052321	3.752049	1.670583	3.214976	2.460098	4.966805	0.827424	3.451984	0.883829	3.542714
0.990732	2.860266	2.796609	3.520394	1.502729	3.410378	1.16378	3.883128	1.697806	3.26475	2.502638	4.973841	0.879433	3.487468	0.900901	3.395593
0.934578	2.90583	2.736445	3.456421	1.417486	3.313698	1.07052	3.761455	1.805447	3.390293	2.708481	5.140985	0.988673	3.592639	0.996904	3.302687
0.86364	2.784811	2.712818	3.443699	1.505651	3.365974	1.159688	3.848334	1.659284	3.231957	2.46235	4.9264	0.856763	3.399749	0.799901	2.871789
0.699639	2.666749	2.628149	3.355461	1.508962	3.371968	1.160666	3.825369	1.630556	3.189336	2.425901	4.938242	0.955189	3.540069	0.864856	2.829994
0.632278	2.528453	2.60373	3.345859	1.450135	3.307551	1.116572	3.816525	1.533465	3.040693	2.327093	4.754117	0.595588	3.187527	0.622461	2.435538
0.595059	2.599594	2.708408	3.419966	1.477105	3.374362	1.183315	3.890768	1.449056	3.016613	2.173072	4.715008	1.157869	3.734899	0.994222	2.815485
0.4826	2.47884	2.661626	3.376433	1.509754	3.299675	1.199473	3.934609	1.511714	3.062352	2.262539	4.812131	1.116334	3.70767	1.065269	2.748228
0.451047	2.431881	2.572793	3.383624	1.449598	3.277332	1.23914	3.956682	1.530291	3.122905	2.283429	4.854882	0.915036	3.594249	0.906358	2.473283
0.485116	2.497281	2.659263	3.425345	1.453655	3.191042	1.182144	3.989929	1.571721	3.190944	2.349266	4.933401	1.076654	3.735124	1.058497	2.590472
0.445102	2.200242	2.467482	3.33077	1.396925	3.134787	1.191837	4.000566	1.723557	3.390293	2.624845	5.150623	1.014937	3.725858	1.002267	2.486268
0.41992	2.144263	2.443805	3.236038	1.479438	3.220942	1.271377	4.081699	1.633672	3.313123	2.47498	5.084103	1.133897	3.859633	1.188546	2.551383
0.451047	2.195767	2.43867	3.300988	1.486348	3.253193	1.32309	4.151608	1.706287	3.355025	2.565859	5.09799	1.11134	3.757066	1.166014	2.461714
0.402436	2.119582	2.470382	3.242098	1.519132	3.2471	1.33706	4.202491	1.722086	3.397596	2.601834	5.140985	0.979705	3.654616	1.081198	2.278821
0.367017	2.016468	2.304055	3.200485	1.421051	3.17707	1.21445	4.105679	1.571721	3.203799	2.345256	4.890481	0.865731	3.628177	1.075811	2.304797
0.507839	2.267699	2.632532	3.446807	1.377825	3.184917	1.19714	4.068259	1.568814	3.161468	2.405353	4.954761	0.709358	3.49686	0.96252	2.111089
0.428079	2.182339	2.493436	3.358757	1.436449	3.180799	1.20998	4.081699	1.45362	3.082935	2.279078	4.879146	0.778299	3.539937	1.024968	2.123904
0.37984	2.082792	2.444992	3.364156	1.344359	3.092619	1.114473	3.989055	1.40342	2.932456	2.238164	4.869111	1.041258	3.770882	1.211334	2.227039
0.15567	1.746353	2.171907	3.136337	1.288554	3.038628	1.08237	3.917525	1.479122	3.02778	2.419407	5.050528	0.871425	3.636647	1.190192	2.137994
0.154273	1.819188	2.280447	3.212007	1.246412	2.988738	1.024555	3.885964	1.410782	2.960012	2.285461	4.876347	0.918316	3.637391	1.200606	2.137007
0.073834	1.722174	2.145452	3.093671	1.216504	2.956758	0.975332	3.81181	1.434795	2.998285	2.424245	4.969035	0.400524	3.18798	0.912917	1.765709
0.067243	1.806929	2.256101	3.163017	1.25251	2.9767	1.023437	3.876422	1.410782	2.947281	2.317348	4.797949	0.552084	3.29362	0.946174	1.79079
0.090831	1.862483	2.331931	3.21856	1.288554	3.024622	1.085498	3.920228	1.375814	2.920499	2.266495	4.782029	0.660615	3.284443	1.01965	1.854623
-0.037821	1.60027	2.177006	3.059814	1.170687	2.837469	0.957262	3.818562	1.213334	2.703068	2.064157	4.514593	0.874767	3.558601	1.239604	2.111089
-0.114497	1.582426	2.06396	3.018308	1.09562	2.792028	0.926305	3.807119	1.281305	2.752093	2.125824	4.554642	0.979705	3.575476	1.336537	2.149711
-0.222739	1.346484	1.883714	2.818247	1.017573	2.659683	0.861549	3.726664	1.228939	2.714024	2.051128	4.540411	0.844869	3.48635	1.343852	2.073587
-0.258561	1.322226	1.878822	2.815916	0.884659	2.514019	0.752157	3.635056	1.282744	2.8194	2.238164	4.648869	0.898042	3.503965	1.441654	2.216438
-0.200756	1.382366	1.962181	2.82127	0.975109	2.542659	0.785842	3.685679	1.40777	2.972756	2.38653	4.828731	0.964556	3.523455	1.473907	2.271653
-0.17742	1.491251	2.039042	2.890898	1.066233	2.668911	0.927326	3.805115	1.426601	2.989587	2.336398	4.77915	0.776555	3.258217	1.352198	2.230648
-0.14031	1.581837	2.015748	2.878481	1.063491	2.625425	0.915687	3.824238	1.518976	3.189336	2.554541	4.923789	0.757548	3.283902	1.310629	2.293379
-0.300339	1.322226	1.774021	2.728283	1.092477	2.607596	0.943317	3.887855	1.509281	3.224903	2.515481	4.864516	0.704644	3.171131	1.234166	2.304627
-0.202949	1.370762	1.832864	2.812341	1.049964	2.615577	0.942284	3.910753	1.501724	3.303354	2.564011	4.914273	0.723382	3.205282	1.249523	2.43735
-0.19708	1.382651	1.773198	2.773641	1.160902	2.682802	1.037326	4.063463	1.52204	3.425925	2.541432	5.017003	0.587067	3.13597	1.17773	2.551383
0.027563	1.679045	2.014641	3.005424	1.2919	2.823513	1.226105	4.340142	1.577808	3.582244	2.545491	5.067309	0.97537	3.451029	1.428663	3.03722
0.069723	1.703323	2.015748	3.044751	1.657793	3.20896	1.525336	4.637481	1.806791	3.903275	2.669764	5.293385	1.253955	3.698748	1.629956	3.369375
0.277461	1.966181	2.200092	3.33077	1.624736	3.214934	1.526391	4.776886	1.75232	4.065323	2.898653	5.323447	0.519481	3.144008	1.124068	3.117248
0.447969	2.231245	2.35857	3.506256	1.711472	3.471149	1.578694	4.898523	1.669079	4.014371	2.847072	5.415046	0.776555	3.583813	1.282496	3.436193
0.510716	2.126958	2.331931	3.607641	1.75151	3.635538	1.514609	4.853438	1.606518	3.929166	2.716981	5.4787	0.766066	3.628935	1.221494	3.343678
0.621418	2.171488	2.357424	3.639859	1.546019	3.560307	1.276811	4.718544	1.560396	3.86063	2.839837	5.538691	0.197507	3.258217	0.860016	2.945566
0.981532	2.519119	2.627558	3.763442	1.593126	3.688984	1.215643	4.761856	1.341057	3.664235	2.839837	5.497654	-0.010992	3.231317	0.87984	3.142809
1.068965	2.376163	2.410918	3.520295	1.309215	3.354123	0.931711	4.554403	1.20207	3.544864	3.015428	5.422734	-0.220201	3.23232	1.064006	3.449582
1.371403	2.557672	2.491762	3.520295	1.321942	3.321607	0.913458	4.622276	1.080695	3.437459	2.870193	5.220754	0.060963	3.523007	1.432787	3.989353
1.569292	2.772078	2.464535	3.440825	1.312796	3.332343	0.871149	4.675697	1.030232	3.43631	2.712667	5.18512	-0.232561	3.345858	1.341956	3.920457
1.743915	2.924084	2.464535	3.401163	1.423408	3.390158	0.960392	4.858466	1.069558	3.54951	2.826791	5.105871	-0.300676	3.312308	1.307498	3.868183
1.9519	3.107827	2.549329	3.441509	1.440924	3.407156	0.935312	4.900727	1.197047	3.769201	2.969623	5.183362	-0.423179	3.171131	1.324622	3.772405
2.032554	3.238152	2.464012	3.347266	1.506221	3.422713	0.994733	5.009277	1.175223	3.72645	2.902632	4.921546	-0.478722	3.126317	1.354206	3.596489
2.132408	3.51866	2.602011	3.430181	1.394138	3.326094	0.934082	4.991159	1.101763	3.639688	2.757713	4.750536	-0.448546	3.084188	1.387166	3.584783
1.993022	3.27218	2.390742	3.169301	1.420023	3.293512	0.898556	4.970566	1.100928	3.674123	2.751433	4.848789	-0.133378	3.354168	1.650916	3.717445
1.998918	3.378934	2.278745	3.143016	1.268868	3.124675	0.757106	4.818468	1.045902	3.554515	2.699775	4.720347	-0.283675	3.161947	1.518436	3.449582
2.124364	3.586977	2.49699	3.276213	1.332618	3.262641	0.797289	4.921593	1.233417	3.776043	3.05409	5.017003	-0.258134	3.144008	1.536928	3.275891
2.105673	3.601352	2.468354	3.282886	1.38385	3.273344	0.836838	4.964022	1.13249	3.635766	2.790479	4.897335	-0.0293589999999999	3.442199	1.80648	3.542714
2.169535	3.702494	2.579163	3.376942	1.298709	3.28567	0.823144	4.92912	1.100928	3.554515	2.697615	4.877258	0.000215000000000076	3.468697	1.829805	3.422389
2.111901	3.696678	2.519577	3.253736	1.289427	3.25631	0.796012	4.922702	1.063693	3.49466	2.807214	4.969035	0.069693	3.577715	1.852047	3.251227
2.120689	3.77892	2.500656	3.187459	1.282417	3.237521	0.823144	4.878813	1.002014	3.35484	2.738721	4.824229	-0.0814820000000001	3.275229	1.674105	2.905252
2.08926	3.870248	2.493436	3.110521	1.259251	3.150829	0.758185	4.750244	1.002014	3.254998	2.657054	4.73413	0.014872	3.36306	1.661879	2.839272
2.148885	4.029446	2.630492	3.121633	1.183901	3.008732	0.635354	4.570968	0.924551	3.084465	2.652062	4.606593	-0.010992	3.36306	1.661879	2.773643
2.085095	3.887746	2.548455	3.042969	1.173932	3.024622	0.616269	4.455266	0.890939	2.951518	2.584781	4.61818	0.018773	3.398327	1.661879	2.813067
1.922181	3.688552	2.50207	2.902643	1.164248	2.968762	0.49493	4.292328	0.926718	2.930897	2.68476	4.786963	0.134388	3.532453	1.719529	2.827495
1.847617	3.729443	2.493436	2.868373	1.089121	2.895013	0.416016	4.099099	0.888053	2.805079	2.677771	4.722129	-0.0148539999999999	3.310282	1.467633	2.564712
1.776459	3.898109	2.739643	2.650405	0.864767	2.86914	0.354079	3.918383	0.475741	2.38745	2.430211	4.521646	-0.172544	3.225149	1.245396	2.475363
1.764178	4.084662	2.925979	2.252757	0.690364	2.881105	0.23473	3.861493	0.311152	2.080886	2.290622	4.259343	-0.244083	3.187527	1.200606	2.499549
1.715254	4.052504	3.065411	2.242933	0.587258	2.871281	0.138688	3.750065	0.343043	2.036609	2.187937	4.221785	-0.355638	3.110051	1.024491	2.356669
1.365688	3.476123	2.7387	1.962409	0.529528	2.806018	0.075378	3.642175	0.532835	2.138439	2.449305	4.498205	-0.270987	3.267588	1.047019	2.460589
1.127511	3.217856	2.579163	1.859591	0.587258	2.879438	0.090948	3.630809	0.492608	1.994004	2.268508	4.343287	-0.074193	3.319008	1.065269	2.460657
0.939701	2.931599	2.253033	1.635162	0.584114	2.859616	0.059818	3.496018	0.599474	2.07784	2.432264	4.46051	-0.440082	3.014028	0.754912	2.162907
0.917915	3.044723	2.27955	1.655598	0.516593	2.724574	-0.030677	3.359722	0.503518	1.922762	2.217722	4.184533	-0.573961	2.796	0.63278	2.059585
0.79281	2.963635	2.199196	1.617825	0.401469	2.606405	-0.139081	3.21017	0.557671	1.940553	2.249559	4.207904	-0.603197	2.787287	0.57736	1.995387
0.812733	3.165814	2.253962	1.652524	0.404568	2.570393	-0.181882	3.235206	0.412297	1.99949	2.421541	4.43018	-0.570108	2.891341	0.63278	2.123904
0.765985	3.029815	2.174686	1.646506	0.49822	2.729714	-0.019461	3.320969	0.706666	2.326417	2.532573	4.717531	-0.0917060000000001	3.223323	0.837096	2.35821
0.974862	3.339308	2.524725	1.897659	0.754776	3.04673	0.183618	3.489339	0.934599	2.443052	2.607742	5.01916	0.245933	3.521725	0.94088	2.486268
0.82771	3.082834	2.419789	1.795208	0.758029	3.186807	0.231551	3.494018	0.737778	2.108126	2.213297	4.81731	0.735121	3.948675	1.205931	2.918322
0.515433	2.789313	2.280447	1.652524	0.484518	2.990673	0.016907	3.262324	0.513054	1.740346	2.178142	4.828731	0.606187	3.957199	1.065269	2.773788
0.196666	2.804239	2.503579	1.672862	-0.0308470000000001	2.63326	-0.450648	2.743535	0.406445	1.473142	2.358313	5.031062	0.178458	3.70767	0.700496	2.473401
-0.333792	2.397478	2.306964	1.457967	-0.21641	2.471722	-0.688713	2.466234	0.187386	1.01802	2.154075	4.814637	0.096532	3.716707	0.700496	2.525292
-0.747776	2.058573	2.23371	1.307853	-0.178262	2.419297	-0.696849	2.281049	0.009183	0.676708	1.767144	4.516901	-0.304959	3.373713	0.415414	2.240625
-1.04811	1.858132	2.177006	1.21563	-0.266929	2.261893	-0.856144	2.004682	0.220306	0.798443	2.082834	4.719753	-0.354413	3.336797	0.366963	2.149711
-1.233259	1.606164	2.000098	1.050256	-0.256102	2.177598	-0.861894	1.892103	0.161277	0.703005	2.023522	4.545411	-0.0482730000000001	3.521725	0.494478	2.35641
-1.208683	1.851416	2.124427	1.043626	-0.525888	1.891226	-1.022367	1.666157	0.15869	0.600946	2.159343	4.644993	-0.821133	2.874346	-0.0842470000000001	1.638059
-1.288681	1.814075	2.045781	0.909521	-0.366799	2.04245	-0.904134	1.789488	0.106514	0.576742	2.259847	4.703527	-0.886555	2.856603	0.00937899999999992	1.892934
-1.326832	1.60201	1.911066	0.912267	-0.287835	2.012005	-0.890599	1.776818	0.120192	0.569566	2.231193	4.606593	-0.690687	2.986947	0.185214	2.111144
-1.351513	1.478879	1.864966	0.97581	-0.253266	1.987233	-0.861153	1.776818	0.162601	0.538394	2.060503	4.441768	-0.598362	2.917739	0.134116	1.894746
-1.367328	1.517057	1.882552	1.201181	-0.17533	2.056181	-0.84363	1.748328	0.228568	0.562451	2.187673	4.502809	-0.861189	2.649275	-0.157922	1.538295
-1.512366	1.292258	1.842695	1.122341	0.026197	2.225105	-0.709594	1.7786	0.205154	0.451464	2.129512	4.467527	-0.770563	2.761367	-0.126162	1.562627
-1.725798	1.052651	1.621249	0.969295	-0.162385	1.899335	-0.963701	1.446607	0.043378	0.184209	1.896892	4.240507	-0.788123	2.718578	-0.143461	1.562006
-1.884088	0.89723	1.572487	0.924028	-0.335277	1.696818	-1.154393	1.1855	0.046071	0.131674	1.980373	4.161209	-0.823255	2.521892	-0.234113	1.364546
-1.82542	0.992775	1.596778	0.98375	-0.325216	1.680427	-1.200157	1.070904	0.096761	0.081367	2.056975	4.147396	-0.788086	2.512084	-0.225404	1.362281
-1.887404	0.939023	1.628982	0.896422	-0.4415	1.514489	-1.373858	0.831353	0.135188	0.076524	2.133892	4.182504	-0.816957	2.477913	-0.27896	1.261874
-1.986089	0.660485	1.420207	0.7433	-0.372657	1.476462	-1.38959	0.787233	0.005059	-0.111583	1.881971	3.867133	-0.900175	2.256031	-0.381419	1.087426
-2.043087	0.548584	1.36914	0.632608	-0.419911	1.449422	-1.403679	0.740726	-0.100019	-0.241956	1.789169	3.756414	-0.829187	2.232329	-0.375569	1.104564
-2.063474	0.554235	1.392855	0.559021	-0.481617	1.316818	-1.522584	0.648767	-0.020904	-0.123414	1.930248	3.883246	-0.864675	2.238392	-0.372643	1.073669
-2.139944	0.448322	1.236319	0.409828	-0.521576	1.241385	-1.581809	0.630155	-0.142143	-0.234941	1.765603	3.639845	-0.762445	2.196354	-0.27896	1.124565
-2.121036	0.337057	1.210885	0.409828	-0.531689	1.257491	-1.564752	0.726047	-0.207419	-0.239698	1.681244	3.496525	-0.912342	2.053552	-0.394038	1.001893
-1.905645	0.784422	1.522682	0.61798	-0.534538	1.341131	-1.535083	0.841978	-0.082958	-0.02122	2.007989	3.736019	-0.893547	2.093683	-0.345912	0.997732
-1.923749	0.70228	1.3852	0.572056	-0.357502	1.457883	-1.350026	1.124605	-0.063131	0.150634	2.051914	3.853762	-0.427051	2.580577	0.079931	1.462985
-1.869023	0.8149	1.553821	0.723597	-0.537566	1.363553	-1.408779	1.135375	-0.038475	0.203264	2.130616	3.904846	-1.040543	2.051676	-0.301319	0.937062
-1.925433	0.571695	1.466506	0.713963	-0.503173	1.447425	-1.32028	1.227042	-0.00166000000000002	0.225716	2.10553	3.973145	-0.832246	2.238002	-0.153175	1.146892
-1.810343	0.654854	1.684129	0.817304	-0.322368	1.625912	-1.197725	1.332825	-0.016766	0.107905	2.019451	3.936201	-0.49746	2.495802	0.066737	1.338794
-1.82542	0.602479	1.669693	0.761567	-0.405262	1.463159	-1.201644	1.201403	0.006413	-0.00930799999999998	2.045545	3.910993	-0.562127	2.546916	0.091086	1.385059
-1.753335	0.609199	1.870494	0.755769	-0.335277	1.547069	-1.121698	1.108791	-0.07544	-0.305884	1.832028	3.754653	-0.559331	2.528795	0.0891	1.374198
-1.884988	0.40187	1.670725	0.512997	-0.283043	1.471535	-1.083272	0.900677	0.035153	-0.39314	1.987806	3.860035	-0.355174	2.650553	0.224662	1.439367
-1.753335	0.362668	1.818856	0.505722	-0.335277	1.36814	-1.122611	0.667426	0.037012	-0.645817	1.897627	3.736019	-0.365204	2.649275	0.242866	1.41176
-1.748532	0.190808	1.727576	0.373253	-0.277584	1.411729	-1.03742	0.557271	0.114585	-0.616292	1.941363	3.876159	-0.433444	2.590183	0.251801	1.364546
-1.553977	0.296837	1.839045	0.439169	-0.341051	1.352079	-1.006475	0.475245	0.263081	-0.494303	2.120395	4.089112	-0.113885	2.918275	0.449548	1.574634
-1.409955	0.43133	1.908708	0.569367	-0.247486	1.452041	-0.91492	0.526928	0.410811	-0.312609	2.355883	4.374374	-0.188777	2.917316	0.329603	1.398379
-1.316511	0.460763	1.974118	0.62299	-0.0682860000000001	1.639518	-0.766867	0.627583	0.510252	-0.239698	2.22497	4.462841	-0.0360410000000002	3.039641	0.333412	1.313099
-1.210949	0.543217	2.040916	0.778654	0.111859	1.814349	-0.662111	0.726047	0.742667	0.050634	2.528413	4.700942	0.11183	3.082845	0.260817	1.261874
-1.077421	0.513744	2.186228	0.928626	0.165787	1.990103	-0.585704	0.748948	0.844636	0.157753	2.573904	4.757728	-0.0686599999999999	2.901216	-0.054976	0.964991
-1.155096	0.319283	2.099572	0.938652	0.316155	2.111264	-0.485051	0.801931	0.920529	0.220727	2.611838	4.750743	-0.050061	2.96247	-0.182592	0.921757
-1.13656	0.331449	2.238569	1.02782	0.286915	2.103031	-0.528292	0.73425	0.906467	0.175152	2.592669	4.717531	0.011065	2.917316	-0.358934	0.762272
-1.376753	-0.017854	1.970573	0.800018	0.248152	2.084548	-0.56834	0.610104	0.872632	0.071706	2.558659	4.6607	-0.215216	2.703022	-0.642386	0.461119
-1.359163	0.031592	2.111949	0.827541	0.16278	1.957112	-0.677361	0.395091	0.913284	0.059792	2.723567	4.677217	-0.0917060000000001	2.701284	-0.731239	0.494309
-1.436166	-0.0466890000000001	2.076509	0.745784	0.203813	1.974033	-0.720239	0.299214	0.746919	-0.208868	2.453789	4.467958	-0.262134	2.529024	-0.902369	0.331007
-1.575279	-0.247531	1.998307	0.573699	-0.150519	1.609832	-1.002883	-0.0892	0.619989	-0.371844	2.32256	4.27081	-0.296885	2.409722	-0.989556	0.190603
-1.454723	0.103539	2.207435	0.426891	-0.250394	1.555164	-1.123497	-0.203682	0.363583	-0.684095	2.112695	3.966182	-0.446036	2.289116	-1.069077	0.174183
-1.514755	0.121219	2.236854	0.202956	-0.316564	1.547069	-1.195971	-0.298025	0.297368	-0.817046	2.045545	3.901434	-0.543483	2.230224	-1.103683	0.140564
-1.673472	-0.017854	2.052144	0.011929	-0.505783	1.319654	-1.375485	-0.517206	0.173675	-0.935454	1.990118	3.696709	-0.601478	2.077316	-1.155788	0.115623
-1.733547	0.052398	2.134005	0.00738099999999997	-0.585197	1.233915	-1.422302	-0.595319	0.127651	-0.985857	1.944469	3.665975	-0.355174	2.315814	-1.015652	0.323984
-1.928816	-0.127576	2.000098	-0.156409	-0.603087	1.187489	-1.476469	-0.606911	0.105242	-0.984032	1.888597	3.731441	-0.00654200000000005	2.614901	-0.761788	0.628996
-1.947325	-0.082009	1.887757	-0.185493	-0.716794	1.05081	-1.566287	-0.656895	0.263294	-0.70019	2.2035	3.904846	-0.643187	2.008857	-1.195348	0.101938
-1.968172	0.086712	2.05397	-0.101149	-0.743169	1.099597	-1.524699	-0.605603	0.278292	-0.634894	2.130616	3.934272	-0.404318	2.144907	-1.107804	0.176602
-2.105392	-0.114882	1.870494	-0.179946	-0.635305	1.17448	-1.435014	-0.454227	0.414744	-0.386112	2.411428	4.168249	-0.354413	2.221227	-0.990432	0.258192
-2.066687	-0.034	1.95215	-0.071583	-0.637934	1.206782	-1.362851	-0.345991	0.378785	-0.388372	2.273731	4.110022	-0.544688	2.034368	-1.203963	0.111562
-2.162666	-0.0932930000000001	1.944564	-0.062742	-0.463583	1.373982	-1.245749	-0.219303	0.511642	-0.270328	2.482721	4.310522	-0.617546	1.95807	-1.295159	0.077153
-2.144051	-0.0286999999999999	2.052144	-0.045801	-0.558657	1.268425	-1.272595	-0.256796	0.524119	-0.258544	2.496071	4.322214	-0.848951	1.773492	-1.424618	-0.088616
-2.259255	-0.306495	1.887757	-0.0941930000000001	-0.553464	1.266278	-1.18669	-0.198544	0.537994	-0.279889	2.447008	4.326899	-0.48851	2.051676	-1.185828	0.262735
-2.201232	-0.150855	2.048774	-0.0411889999999999	-0.431722	1.396041	-1.024669	-0.09989	0.491077	-0.409425	2.351263	4.266533	-0.273579	2.214203	-1.01961	0.52275
-2.336636	-0.426102	1.839045	-0.19245	-0.468644	1.376298	-0.991394	-0.080415	0.4121	-0.538733	2.177627	4.10586	-0.381321	2.136782	-1.085816	0.544772
-2.221652	-0.22416	2.080008	-0.014045	-0.410583	1.406469	-0.904925	-0.021852	0.376021	-0.581149	2.202726	4.140308	-0.352195	2.103011	-1.037721	0.606521
-2.240713	-0.294135	1.970573	-0.120329	-0.482101	1.336296	-0.891346	-0.075181	0.294659	-0.707346	2.056975	4.068258	-0.682092	1.840494	-1.229682	0.396456
-2.299076	-0.459766	1.787291	-0.251988	-0.404763	1.418256	-0.789172	0.037169	0.37467	-0.590427	2.296776	4.240507	-0.601478	1.899544	-1.155788	0.519514
-2.279214	-0.345919	1.783898	-0.266666	-0.41319	1.420105	-0.787049	0.087789	0.305787	-0.627726	2.179222	4.231321	-0.478722	1.949666	-0.999119	0.677069
-2.163953	-0.143538	2.000098	-0.086423	-0.34154	1.541986	-0.667244	0.284257	0.257425	-0.597537	2.125824	4.182165	-0.397759	2.001644	-0.919396	0.82241
-2.260924	-0.281224	1.868558	-0.107744	-0.373444	1.5526	-0.680854	0.381573	0.183552	-0.625022	2.044106	4.13379	-0.299294	2.043079	-0.810466	0.922278
-2.300018	-0.267757	1.900454	-0.128978	-0.582559	1.295527	-0.859592	0.302616	0.303233	-0.44685	2.351263	4.399795	-0.835768	1.663682	-1.186716	0.57678
-2.261224	-0.096565	2.001984	0.00299499999999997	-0.656364	1.257903	-0.904925	0.298697	0.293337	-0.421255	2.359122	4.451092	-0.697824	1.672211	-1.117059	0.601773
-2.396533	-0.267757	1.87465	-0.109862	-0.690592	1.257903	-0.934326	0.309237	0.403647	-0.234941	2.514848	4.582897	-0.442458	1.890964	-0.911517	0.910236
-2.664345	-0.703988	1.526279	-0.307002	-0.684822	1.232136	-0.938552	0.325576	0.320866	-0.338906	2.443519	4.467527	-0.75237	1.571634	-1.117059	0.601773
-2.549557	-0.493246	1.763322	-0.122551	-0.871456	1.108017	-1.084701	0.150892	0.225941	-0.49415	2.340657	4.373733	-0.64992	1.588349	-1.021026	0.651917
-2.760371	-0.881759	1.453687	-0.29635	-0.769122	1.116513	-1.100987	0.118444	0.124158	-0.653718	2.253216	4.280249	-0.712348	1.59739	-0.950509	0.785991
-2.646068	-0.728137	1.639025	-0.169192	-0.750796	1.135181	-1.144578	0.00481700000000002	0.035153	-0.849626	2.112695	4.177874	-0.957666	1.404973	-1.121359	0.603791
-2.644786	-0.77315	1.574091	-0.22845	-0.622099	1.303871	-1.098994	0.016172	0.050267	-0.856576	2.133325	4.25498	-0.51443	1.764396	-0.753349	0.987849
-2.453389	-0.413253	1.81496	-0.031058	-0.606244	1.336296	-1.068997	0.090625	0.063978	-0.796043	2.137262	4.171118	-0.618225	1.632307	-0.769941	0.916947
-2.357603	-0.291267	1.924221	0.114085	-0.48997	1.498148	-0.932701	0.352612	0.091424	-0.646588	2.185916	4.287814	-0.366142	1.824497	-0.518433	1.115774
-2.163571	-0.015661	2.052144	0.266465	-0.5102	1.473952	-0.928166	0.535039	0.114585	-0.494303	2.178142	4.343884	-0.199401	2.025761	-0.287766	1.311166
-2.027935	0.141579	2.135933	0.451738	-0.296251	1.737727	-0.708727	0.97558	0.324945	-0.054554	2.479118	4.620782	-0.192413	2.077099	-0.2245	1.297773
-1.87024	0.413415	2.2631	0.630142	-0.146486	2.009411	-0.511067	1.362724	0.449454	0.261386	2.63598	4.882242	-0.077885	2.230031	-0.0942329999999999	1.398379
-1.83132	0.460763	2.182774	0.684241	0.0378860000000003	2.263467	-0.289852	1.761707	0.4694	0.452855	2.568947	4.890722	0.197507	2.47791	0.234906	1.638431
-1.594556	0.885448	2.50207	1.050256	0.237341	2.547546	-0.092685	2.186591	0.464815	0.582476	2.443206	4.915742	-0.0519080000000001	2.358214	0.031613	1.436066
-1.516707	0.981288	2.505185	1.142283	0.207958	2.531104	-0.10445	2.351207	0.63208	0.915399	2.800969	5.265207	0.257074	2.658251	0.31207	1.664015
-1.35669	1.358186	2.744383	1.397688	0.280056	2.720293	-0.084729	2.430711	0.532835	0.726127	2.594722	5.19869	0.33604	2.764599	0.310398	1.612694
-1.337318	1.406595	2.720698	1.432693	0.4145	2.863207	-0.132438	2.359976	0.604118	0.736416	2.813835	5.438232	0.353267	2.804716	0.36528	1.592022
-1.175335	1.63698	2.822292	1.637806	0.571167	3.042682	-0.039112	2.430711	0.568641	0.613499	2.713783	5.356135	0.414311	2.936775	0.477142	1.778191
-1.057165	1.892471	3.04507	1.807133	0.510306	3.101225	-0.110057	2.338446	0.674295	0.683772	2.841461	5.512745	0.456733	3.051667	0.515361	1.765261
-0.934335	2.034195	3.040143	1.874191	0.504193	3.05265	-0.134477	2.313734	0.823731	0.829772	3.17117	5.790101	0.427839	3.101169	0.48747	1.753361
-0.85544	2.181217	3.126013	2.003454	0.638785	3.267233	0.005464	2.448281	0.867316	0.856946	3.159444	5.846917	0.601303	3.258736	0.571052	1.830303
-0.791156	2.362415	3.148639	2.03273	0.823012	3.494896	0.105331	2.559559	0.979982	0.994649	3.317853	6.007927	0.740033	3.417018	0.665557	1.880873
-0.754976	2.410228	3.127397	2.038928	0.832683	3.458846	0.110484	2.561164	0.942433	0.941103	3.160469	5.913287	0.744884	3.452889	0.593202	1.817058
-0.831099	2.2689	3.040143	1.973928	0.861531	3.532078	0.175315	2.632254	0.881369	0.886234	3.078686	5.886669	0.747746	3.412412	0.543087	1.739786
-0.75317	2.391798	3.097684	2.023999	0.535836	3.225165	-0.053579	2.437252	0.901725	0.935942	3.093039	5.941484	0.604093	3.386661	0.487667	1.701601
-0.788921	2.487692	3.092582	2.041861	0.790323	3.463279	0.160778	2.716811	1.033332	1.129689	3.335308	6.159316	0.444425	3.225149	0.239912	1.436066
-0.791156	2.498555	3.067219	2.03273	0.82915	3.503918	0.192183	2.774812	1.017649	1.161121	3.329258	6.177989	0.339617	3.100864	0.120967	1.362281
-0.911918	2.244472	2.903048	1.915226	0.748385	3.430618	0.174184	2.781402	0.889485	1.0058	3.002352	5.876196	0.527047	3.225149	0.162896	1.537097
-0.87497	2.150379	3.073467	2.038928	0.755355	3.398182	0.140709	2.694467	0.895431	1.025947	3.046058	5.949209	0.359466	3.08282	0.034915	1.413616
-1.091213	1.82066	2.847254	1.900663	0.619509	3.198922	-0.040209	2.485858	0.854786	0.932741	3.111346	5.983918	0.389269	3.143911	0.030358	1.465174
-1.192763	1.709517	2.87835	1.8947	0.507236	3.084602	-0.11691	2.287322	0.819431	0.751562	2.995602	5.807293	0.568899	3.258353	0.039547	1.589742
-1.231223	1.64993	2.929112	1.962409	0.53953	3.098608	-0.162422	2.142535	0.745627	0.579455	2.896711	5.739151	0.629088	3.23232	0.066656	1.563991
-1.432994	1.418454	2.851494	1.853701	0.526431	3.070613	-0.22336	2.022234	0.772132	0.528481	3.076766	5.80285	0.700757	3.295955	0.053888	1.651722
-1.6688	1.040311	2.579163	1.719298	0.514421	3.06669	-0.226359	1.926647	0.69731	0.398625	2.973779	5.707777	0.535004	3.183272	-0.062137	1.549493
-1.68964	1.111974	2.74182	1.760151	0.517367	3.112631	-0.240842	1.807071	0.653791	0.263442	2.913918	5.639909	0.962962	3.515979	0.180273	1.855277
-1.745757	1.119061	2.710965	1.731274	0.446079	3.020938	-0.354955	1.652977	0.736209	0.227665	2.913918	5.645249	0.700028	3.345445	-0.0959559999999999	1.612694
-1.748532	1.117958	2.715058	1.780605	0.622648	3.184917	-0.222306	1.655298	0.944065	0.322114	2.943424	5.77699	0.765553	3.305631	-0.170506	1.46154
-1.722544	1.313828	2.789942	1.864259	0.796856	3.447794	-0.111269	1.616248	0.981574	0.386687	3.05618	6.016629	1.13489	3.675379	0.026716	1.715351
-1.647861	1.365099	2.792505	1.909941	0.858592	3.515296	-0.169933	1.588213	0.970686	0.396767	3.297982	6.215626	1.081311	3.735751	0.0351680000000001	1.880195
-1.765699	1.088986	2.548455	1.717014	0.793571	3.475823	-0.17467	1.555941	0.815722	0.160369	3.14795	6.052442	1.320297	4.042076	0.216415	2.305223
-1.685829	1.203026	2.737853	1.871902	0.92318	3.626263	-0.051267	1.646461	0.823713	0.127758	3.09968	6.073965	1.297348	4.036613	0.173084	2.317583
-1.548684	1.510474	2.929112	1.965512	0.764649	3.419831	-0.186719	1.40113	0.857882	0.091124	3.198025	6.175764	1.315505	4.167249	0.194347	2.538967
-2.039748	1.256963	2.983232	1.301934	0.19408	3.40087	-0.538705	1.130203	-0.184209	-0.611584	2.674183	6.023052	0.086658	3.761558	-0.465476	2.460589
-2.192757	1.388987	3.646125	0.880856	-0.442157	3.327737	-1.060412	0.757866	-1.089784	-1.18009	2.350871	6.019949	-1.033676	3.325317	-1.282343	2.046834
-2.557127	0.838546	3.367172	0.64264	-0.569814	3.527673	-1.166825	0.861808	-1.684709	-1.778246	2.019451	6.006695	-1.502807	3.228545	-1.644666	1.778191
-2.842424	0.802536	3.175017	0.809818	-0.86317	3.460855	-1.360579	0.930063	-2.12973	-2.399607	1.666324	5.742035	-1.102894	3.819194	-1.418483	2.111961
-3.031326	0.975346	3.17366	1.084104	-1.078977	3.547965	-1.358932	1.043948	-2.1404	-2.586404	1.846948	6.025302	-0.954658	3.98449	-1.508218	1.995827
-3.032415	1.207947	3.284283	1.354626	-1.277876	3.785104	-1.324377	1.30713	-2.162697	-2.642594	1.89113	6.334714	-1.314042	3.875524	-1.868235	1.524817
-3.275593	1.011697	3.089925	1.381363	-1.778366	3.775805	-1.462413	1.396184	-2.316574	-2.689565	1.813712	6.609054	-1.535068	4.120005	-2.085409	1.689656
-3.143493	1.358715	3.366574	1.412426	-1.943597	4.052532	-1.492139	1.745133	-2.50239	-2.571052	1.529403	6.764345	-2.841945	3.345445	-3.157452	0.811037
-3.083238	1.065337	3.007687	1.116938	-1.898093	4.412259	-1.406023	2.278001	-2.451881	-1.981104	1.611989	7.033568	-3.58518	2.799545	-3.815239	0.199019
-2.626946	1.564881	3.310279	1.225405	-1.887319	4.756985	-1.183568	2.909622	-2.552788	-1.99808	1.289773	6.902457	-3.865301	2.809125	-4.084349	0.077153
-2.873968	1.378131	2.980145	1.1137	-2.169075	4.710872	-1.143227	3.175454	-2.420631	-1.874012	1.509593	7.192702	-4.157487	2.692786	-4.138844	-0.142498
-3.125391	1.491251	3.036192	1.3578	-2.385301	4.666775	-1.113269	3.261181	-2.449215	-2.092508	1.231587	7.043609	-4.041089	2.939864	-4.00077	-0.12721
-3.519268	1.274402	2.844127	1.418838	-2.254755	4.845235	-0.937252	3.467816	-2.307778	-2.249071	1.198391	7.064706	-3.629491	3.274092	-3.70657	-0.0913959999999999
-3.68672	1.293723	2.871266	1.596188	-2.347536	4.735973	-1.008886	3.319888	-2.060087	-2.353303	1.384753	7.125291	-3.508127	3.31542	-3.646397	-0.12721
-3.856376	1.424516	3.28667	1.307911	-2.580152	4.608233	-1.171726	3.125535	-1.936987	-2.284206	1.621675	7.361979	-3.932636	2.87372	-3.835129	-0.274536
-3.626333	1.483048	3.448453	1.022524	-2.387846	4.830481	-1.070392	3.198329	-2.008991	-2.202488	1.345882	7.226942	-4.421689	2.533511	-4.161171	-0.439358
-2.914102	1.930522	4.036851	1.104238	-2.170794	5.062891	-1.021547	3.298673	-1.837252	-1.898043	1.46029	7.332524	-4.712867	2.458831	-4.299541	-0.372455
-2.486522	1.924102	4.09179	1.025799	-1.821254	5.403169	-0.682435	3.669982	-1.649823	-1.519186	1.648246	7.406055	-4.789854	2.398487	-4.200654	-0.201102
-2.028135	2.226896	4.37687	1.253343	-1.836403	5.345464	-0.60718	3.78899	-1.513158	-1.429295	1.59733	7.437945	-4.932504	2.185396	-4.187235	-0.298914
-1.926752	2.579482	4.347292	1.613374	-1.596956	5.443992	-0.385641	4.12003	-1.212749	-1.319837	1.683844	7.513221	-4.59748	2.344628	-3.888247	-0.212281
-1.988234	2.980605	4.319319	1.999077	-1.429946	5.493974	-0.317026	4.28117	-0.83428	-1.219294	1.951918	7.534223	-4.137397	2.74415	-3.39217	0.244226
-2.221353	2.803895	3.951856	2.116958	-1.09038	5.61545	-0.140726	4.454553	-0.367145	-0.954106	2.26427	7.677537	-3.462333	3.315227	-2.684335	0.85961
-2.086492	3.215126	4.149174	2.655918	-0.802317	5.81363	0.019983	4.613468	0.016061	-0.72847	2.577874	7.86872	-3.090211	3.627467	-2.301226	1.13477
-1.985287	3.42517	4.176652	2.971706	-0.342055	6.095024	0.353077	4.887272	0.25963	-0.578666	2.818574	7.968139	-2.851991	3.859894	-1.919874	1.487071
-1.83098	3.589295	4.205048	3.207243	-0.099305	6.142914	0.409341	4.902083	0.646418	-0.289022	3.281878	8.348721	-2.125156	4.503694	-1.15916	2.281139
-1.738927	3.486264	4.207055	3.394004	0.20823	6.402633	0.594812	4.963896	0.834845	-0.19212	3.44331	8.436358	-1.549186	5.067335	-0.546231	2.984166
-1.29826	3.97705	4.518063	3.866123	0.792653	6.882901	0.90969	5.246077	1.008793	-0.121169	3.647203	8.574518	-1.206795	5.434978	-0.156264	3.395711
-0.920989	4.302349	4.718838	4.129864	1.191423	7.11803	1.147923	5.410256	1.156794	0.145803	4.053572	8.936052	-0.796479	5.897412	0.349536	3.868183
-0.486331	4.842313	4.978922	4.523669	1.487112	7.110395	1.432558	5.508662	1.962831	0.979312	4.801055	9.476314	0.05295	6.43592	1.056887	4.459863
0.126049	5.37324	5.298654	4.893254	2.078226	7.186722	1.877503	5.718356	2.596249	1.617193	5.237272	9.726636	0.781559	6.756883	1.637875	4.75085
0.77671	6.027632	5.770448	5.329593	2.97546	7.787314	2.620316	6.173799	3.254554	2.179866	6.054976	10.192361	1.461552	7.189662	2.122484	5.118534
1.831571	6.523444	6.158028	5.720702	3.879274	8.349945	3.381538	6.688629	4.085427	3.158855	6.686302	10.660024	2.553377	7.76667	2.809254	5.733818
2.364866	6.794619	6.311788	5.955043	3.989602	8.194188	3.327104	6.455054	4.221997	3.252509	6.627242	10.491318	3.060846	8.086339	3.102246	5.956347
2.679918	7.05665	6.584918	6.134706	4.239556	8.052287	3.323144	6.18581	4.387491	3.329338	6.665577	10.333047	2.881	7.835762	2.851094	5.584005
2.863294	7.070654	6.558113	6.149094	4.26932	7.882027	3.165176	5.867972	4.30455	3.297119	6.538495	10.090914	2.830577	7.642904	2.779295	5.376549
2.762446	6.758354	6.280416	5.969409	4.183565	7.624644	2.924844	5.494035	4.138719	3.153533	6.37639	9.887048	2.636758	7.367068	2.58077	5.184202
2.541284	6.44598	6.071109	5.799787	4.283397	7.639968	2.79117	5.31079	3.838275	2.899915	5.999667	9.572779	2.532469	7.216984	2.491361	5.001695
2.118647	5.869592	5.564471	5.491414	4.186322	7.47766	2.521854	5.094807	3.763565	3.027906	6.017221	9.565798	2.079859	6.812728	2.195807	4.552599
1.964631	5.730641	5.359248	5.472683	3.950944	7.317352	2.267186	4.956325	3.652801	3.177463	5.900566	9.445151	2.096254	6.824233	2.192484	4.570596
2.046169	6.071101	5.651387	5.781937	3.73441	7.133428	2.053902	4.877538	3.643902	3.37778	6.044813	9.572779	1.950296	6.676125	2.115439	4.384279
1.746129	5.695534	5.329169	5.603154	3.820779	7.248209	2.038926	4.956325	3.516361	3.345923	5.769903	9.464872	2.198708	6.89126	2.17645	4.421766
1.567195	5.607423	5.357424	5.636331	3.703197	7.18063	1.869552	4.824127	3.323777	3.152845	5.582954	9.302111	2.101398	6.67808	2.032753	4.236667
1.311129	5.244483	5.095111	5.463823	3.710221	7.141749	1.832417	4.661839	3.160552	2.953396	5.40946	9.138349	2.471692	6.973581	2.149923	4.540434
1.094745	4.986967	5.037138	5.292163	3.516703	6.860353	1.601768	4.266631	3.019567	2.633992	5.211667	8.904601	2.027646	6.479264	1.696696	3.921595
1.015118	4.860134	5.213316	5.236238	3.542793	6.747253	1.507826	3.879835	3.013348	2.342102	5.372737	8.870023	2.058603	6.529648	1.618395	3.9528
0.706115	4.419945	5.007536	4.926494	3.373629	6.484788	1.28968	3.426706	2.71594	1.769729	4.990779	8.458406	2.46638	6.785377	1.731686	4.168467
0.526299	4.22657	4.9506	4.759501	3.13078	6.231249	1.106733	2.865382	2.582996	1.357878	4.844202	8.292331	2.219457	6.515652	1.429204	3.817692
0.395162	3.97705	5.007732	4.615723	3.13972	6.171903	1.031868	2.456352	2.662235	1.193503	5.145873	8.384667	1.956524	6.262577	1.228718	3.5677
0.230991	3.794515	4.892909	4.419652	2.990856	5.97283	0.834423	1.993603	2.510424	0.801232	5.018059	8.154016	2.284114	6.488795	1.355631	3.683109
-0.031074	3.254172	4.491995	4.122031	2.801224	5.796122	0.735877	1.731734	2.531937	0.76131	5.08678	8.127042	2.099451	6.249185	1.193409	3.552657
-0.137298	3.002848	4.319737	4.046912	2.719321	5.796347	0.678046	1.594601	2.410355	0.672902	4.878269	7.998852	1.783764	5.880164	0.97145	3.135445
-0.265887	2.84323	4.233353	3.90241	2.531232	5.56965	0.517527	1.380912	2.270967	0.697724	5.036812	8.071612	1.804169	5.906544	0.936776	3.227547
-0.386812	2.746019	4.063595	3.826026	2.304652	5.446126	0.378562	1.197074	1.910454	0.396222	4.668053	7.78806	1.169257	5.359444	0.482989	2.744602
-0.557371	2.620824	4.007317	3.730734	2.197109	5.409816	0.251472	1.015817	1.846421	0.266496	4.761622	7.816374	1.284817	5.436865	0.435666	2.780894
-0.857569	2.427188	3.75472	3.459519	1.729313	4.948962	-0.127788	0.537644	1.639789	-0.080549	4.432623	7.515006	1.170501	5.191713	0.252653	2.570809
-0.964931	2.407503	3.839675	3.412079	1.515042	4.721634	-0.288074	0.209853	1.623499	-0.176012	4.479136	7.48351	0.992089	4.949339	-0.029946	2.294841
-1.318642	1.883956	3.448226	3.007128	1.390754	4.621969	-0.39152	-0.02768	1.526086	-0.412511	4.232616	7.275967	1.241968	5.15321	0.157226	2.452133
-1.386357	1.913052	3.504814	2.964493	1.282885	4.480419	-0.51142	-0.218652	1.296271	-0.754368	3.888758	6.998356	1.070692	4.960999	0.00934500000000016	2.258127
-1.443265	1.85493	3.475943	2.896643	1.072056	4.283844	-0.648897	-0.42086	1.319536	-0.780684	4.029116	6.991127	0.8534	4.684239	-0.23249	2.034334
-1.638438	1.527696	3.28224	2.663006	0.910321	4.145279	-0.758624	-0.605349	1.281948	-0.887267	3.952493	6.895387	0.750556	4.630448	-0.274874	1.973429
-1.683637	1.408523	3.199787	2.511678	0.894422	4.193541	-0.758624	-0.63983	1.194447	-1.078214	3.834401	6.744103	0.894697	4.769856	-0.143839	2.129392
-1.856494	1.212907	2.9799	2.32234	0.59998	3.929305	-0.952249	-0.849321	1.047472	-1.277126	3.629536	6.46877	0.827424	4.557494	-0.259662	1.983439
-1.762548	1.293723	3.172358	2.413428	0.482404	3.879534	-0.94634	-0.767216	0.91583	-1.387176	3.23251	6.155365	0.791929	4.482551	-0.357361	1.983439
-1.939687	1.172872	3.117595	2.291179	0.5095	3.989928	-0.749994	-0.494077	1.057353	-1.122134	3.551964	6.345135	0.453225	4.128211	-0.626391	1.679869
-2.070591	1.073092	2.898518	2.176048	0.397419	3.901077	-0.711536	-0.398312	0.983188	-1.108779	3.420902	6.078899	0.756654	4.182251	-0.362732	2.034334
-2.08011	1.117958	2.874235	2.233512	0.536828	4.059236	-0.431171	0.0385880000000001	0.848601	-0.895318	3.31779	5.827136	0.432726	3.708149	-0.519423	1.959754
-2.05436	1.142794	2.626063	2.20373	0.776754	4.340706	0.072672	0.753044	0.367801	-0.580874	3.38987	5.792282	-0.030216	3.399408	-0.581744	2.118404
-1.943553	1.456154	2.762897	2.319862	0.366021	4.01131	-0.288074	0.631261	0.249288	-0.580874	3.611882	5.984985	-0.192604	3.33876	-0.620626	2.179748
-2.020899	1.317468	2.59971	2.242933	0.460466	4.089519	-0.248852	0.67098	0.416908	-0.533367	3.722664	6.149596	-0.02256	3.450568	-0.492378	2.267492
-1.707789	1.711157	2.980789	2.621219	0.620791	4.250471	-0.157978	0.692033	0.677285	-0.366565	3.737558	6.378137	0.023302	3.536833	-0.416684	2.38496
-1.627849	1.64993	3.008024	2.684487	0.905913	4.579194	0.049155	0.831272	0.802276	-0.312659	3.706927	6.452496	0.388	3.845376	-0.248738	2.566055
-1.314037	2.052163	3.477787	3.015016	1.072056	4.735103	0.140841	0.816462	0.986483	-0.237805	3.865149	6.636477	0.258007	3.84232	-0.384635	2.448836
-1.307771	2.019749	3.392716	2.957086	1.060144	4.607362	-0.012295	0.576702	1.060822	-0.301048	3.89587	6.667759	0.693326	4.078903	-0.161268	2.698459
-1.271719	2.16468	3.560101	2.982404	0.866523	4.388811	-0.195966	0.280369	1.034916	-0.510111	3.751188	6.474999	0.348742	3.687585	-0.465476	2.317712
-1.470353	1.74183	3.28248	2.705615	0.792653	4.284611	-0.277523	0.131312	0.931588	-0.685274	3.575029	6.262124	0.56211	3.804945	-0.451662	2.469667
-1.55469	1.703977	3.426291	2.563416	0.584207	4.074414	-0.439297	-0.112049	0.883531	-0.843025	3.521609	6.162656	0.336134	3.510429	-0.653404	2.205007
-1.804562	1.384778	3.007301	2.17605	0.4289	3.825078	-0.561529	-0.232936	0.688105	-1.06677	3.287357	5.851017	0.356301	3.498662	-0.734253	2.23032
-1.908515	1.310808	2.932155	1.968085	0.271193	3.654424	-0.596874	-0.228282	0.49883	-1.242155	3.039201	5.525396	0.104273	3.100368	-0.932443	2.022135
-2.136567	1.024742	2.572146	1.68559	0.297351	3.673623	-0.441786	0.036191	0.559643	-0.99841	3.121353	5.543705	0.095278	3.01776	-1.017298	1.995703
-2.179199	1.177912	2.520914	1.570961	0.229915	3.616732	-0.344936	0.336705	0.267544	-1.143144	2.59892	4.951738	-0.0665250000000001	2.733665	-1.063463	1.892934
-2.33495	0.950787	2.280447	1.411552	0.128122	3.510208	-0.324014	0.551482	0.246097	-0.980476	2.659316	4.957323	-0.137872	2.593735	-1.123883	1.818513
-2.355029	1.046434	2.256101	1.330775	0.049782	3.42622	-0.36689	0.668875	0.108127	-0.983556	2.517596	4.860888	-0.074193	2.592919	-1.072887	1.842016
-2.408573	1.001279	2.062482	1.256428	-0.152885	3.236089	-0.48809	0.710906	-0.050565	-1.055316	2.274757	4.567159	-0.440082	2.276809	-1.266129	1.663686
-2.375495	1.070467	2.178307	1.322537	0.016991	3.414892	-0.342823	0.974849	-0.087113	-0.924906	2.283524	4.533286	-0.28411	2.289138	-1.182296	1.741103
-2.564962	0.696055	1.878117	1.169663	-0.0623290000000001	3.402456	-0.41886	1.032254	-0.015346	-0.777031	2.441236	4.703061	-0.313422	2.229721	-1.277813	1.689656
-2.432747	0.915136	2.095682	1.310624	-0.221929	3.282898	-0.563908	1.027757	-0.015346	-0.676691	2.486452	4.799408	-0.210799	2.32936	-1.116102	1.995387
-2.355575	0.89723	2.147272	1.428915	-0.11831	3.399503	-0.490409	1.195803	0.039449	-0.566365	2.494292	4.815859	-0.482063	2.067917	-1.254583	1.93166
-2.33823	0.862917	2.287815	1.508119	-0.0655570000000001	3.39629	-0.466012	1.302963	0.204619	-0.277791	2.758219	5.02566	-0.578933	1.936271	-1.318648	1.944807
-2.237268	1.065337	2.492225	1.614745	0.0609170000000001	3.477352	-0.434254	1.369318	0.172467	-0.342672	2.710558	4.99749	-0.262068	2.228203	-1.038692	2.410489
-2.202166	1.029499	2.58171	1.591658	0.0306660000000001	3.446585	-0.563908	1.217157	0.207785	-0.322758	2.864519	5.111309	-0.125862	2.34383	-0.967488	2.551383
-2.275686	0.868388	2.43867	1.457967	-0.096997	3.225165	-0.780189	0.88053	0.266036	-0.409002	2.975902	5.157367	-0.177165	2.287481	-0.932443	2.658832
-2.084896	1.076237	2.740684	1.556601	-0.166224	3.082756	-0.928166	0.630155	0.191411	-0.571778	2.858604	5.044608	0.125313	2.585421	-0.643205	2.972761
-1.965695	1.106392	2.710182	1.530287	-0.030013	3.149172	-0.925122	0.552064	0.206546	-0.611584	2.929204	5.124225	0.561204	2.968139	-0.23249	3.358
-1.690474	1.49757	2.928292	1.687324	0.016991	3.156954	-0.867463	0.58377	0.106633	-0.721101	2.682581	4.980461	0.113645	2.667019	-0.470868	2.895001
-1.709565	1.287195	2.708903	1.573963	0.0767100000000001	3.255112	-0.751656	0.756443	0.344516	-0.357364	3.036768	5.278051	0.331992	2.836461	-0.281408	2.946784
-1.605681	1.442832	2.81611	1.688855	0.100188	3.332343	-0.671304	1.032254	0.470969	-0.055527	3.169468	5.519393	0.524384	3.062095	-0.112237	2.949064
-1.587776	1.33069	2.680993	1.737523	0.306196	3.572789	-0.403457	1.480779	0.562239	0.207032	3.23251	5.594628	0.234653	2.784806	-0.356678	2.452133
-1.530594	1.449651	2.872759	1.944893	0.374486	3.687679	-0.309687	1.698341	0.616517	0.361097	3.250003	5.652623	0.155388	2.694634	-0.481788	2.150619
-1.591551	1.250563	2.791721	1.976917	0.459126	3.814935	-0.210903	1.859229	0.803232	0.568724	3.634056	5.973259	0.366686	2.892083	-0.448179	2.090303
-1.610673	1.220409	2.873449	2.118388	0.441125	3.812091	-0.251116	1.869655	0.601	0.362848	3.245502	5.675903	0.432726	2.918726	-0.567906	2.087937
-1.629764	1.142759	2.899273	2.142235	0.460466	3.797984	-0.266602	1.843576	0.612286	0.363298	3.229483	5.70551	0.448431	2.843808	-0.685191	1.84182
-1.670549	1.070231	2.954677	2.139098	0.613784	3.889263	-0.163462	2.011286	0.551432	0.269586	3.224319	5.623603	0.357687	2.790171	-0.761407	1.842371
-1.730271	1.00443	2.874235	2.056366	0.386701	3.667189	-0.326283	1.884866	0.587049	0.259487	3.230257	5.554193	0.325829	2.833812	-0.916385	1.729802
-1.750143	0.855797	2.82125	1.970984	0.408049	3.621399	-0.36131	1.852523	0.347529	-0.0202450000000001	2.855097	5.29466	0.694173	3.09647	-0.690113	1.951202
-1.590679	1.076395	2.927569	2.041861	0.417338	3.608949	-0.333357	1.900508	0.344516	-0.018359	2.895849	5.260508	0.585692	3.026169	-0.782419	1.895842
-1.41378	1.340089	3.203079	2.192034	0.302799	3.510208	-0.419892	1.861049	0.344516	0.015142	2.878565	5.248964	0.346816	2.83184	-0.941924	1.630145
-1.548684	1.011697	2.762897	1.871902	0.414851	3.640335	-0.284188	2.08334	0.413813	0.161454	2.930455	5.312051	0.356301	2.798163	-0.979993	1.564553
-1.391831	1.255868	2.957042	2.038773	0.309631	3.557314	-0.314047	2.155565	0.506517	0.344131	3.062645	5.432909	0.381721	2.773634	-1.006693	1.578039
-1.449196	1.136428	2.845715	1.986149	0.297351	3.556149	-0.340628	2.199534	0.483317	0.434249	3.08916	5.484695	0.858221	3.089333	-0.697074	1.93276
-1.650607	0.909335	2.660397	1.888913	0.197249	3.430618	-0.424637	2.066128	0.362934	0.325533	2.892088	5.398168	1.028959	3.24694	-0.578856	2.164035
-1.568746	1.058951	2.764051	2.044993	0.229446	3.482146	-0.435275	2.004682	0.429242	0.366209	3.002089	5.513585	0.667631	2.954484	-0.937626	1.793415
-1.588791	1.207947	3.066266	2.254279	0.24861	3.488504	-0.463981	1.889209	0.577764	0.543326	3.14156	5.693338	0.500301	2.754741	-1.03353	1.600243
-1.763646	0.921825	2.790439	2.11036	0.31908	3.608965	-0.470217	1.877032	0.719508	0.685845	3.392893	5.909866	0.77564	3.064497	-0.820296	2.03553
-1.626821	1.190295	3.063991	2.442026	0.280415	3.608965	-0.498581	1.798938	0.689747	0.646142	3.266788	5.833444	0.844052	3.103348	-0.782878	2.21504
-1.641078	1.159139	3.089541	2.525676	0.629724	3.949979	-0.206809	2.033103	0.716174	0.611528	3.232787	5.815699	0.971948	3.24694	-0.621837	2.436074
-1.545388	1.324035	3.282784	2.652442	0.24861	3.474514	-0.523353	1.691854	0.772399	0.709614	3.40279	5.962273	0.921022	3.116472	-0.619835	2.460657
-1.623449	1.101922	3.007687	2.53618	0.334489	3.577732	-0.434254	1.780631	0.726943	0.60134	3.19167	5.786473	0.947817	3.091051	-0.597969	2.552017
-1.46475	1.438954	3.254984	2.659439	0.257443	3.417152	-0.574455	1.644968	0.728691	0.577432	3.261611	5.752092	0.982583	3.254202	-0.51213	2.795388
-1.62223	1.08501	2.9254	2.423842	0.331014	3.444269	-0.588593	1.593223	0.559172	0.327177	2.926127	5.490652	1.346676	3.502833	-0.117895	3.172956
-1.443265	1.513642	3.19947	2.546805	0.178181	3.245316	-0.722143	1.429195	0.618095	0.422395	3.069402	5.623603	1.127685	3.351533	-0.18079	3.087675
-1.624621	1.239754	2.926413	2.252757	0.102302	3.188087	-0.79443	1.386136	0.590764	0.359789	3.057621	5.57828	1.362238	3.510429	0.0275789999999998	3.194251
-1.644683	1.293723	2.871667	2.231896	0.004687	3.139075	-0.86538	1.403266	0.553294	0.415579	3.076766	5.583861	0.945922	3.18173	-0.18682	2.860903
-1.509543	1.545684	3.065411	2.323078	-0.040073	3.174212	-0.868464	1.486993	0.559172	0.527795	3.071426	5.68756	1.002747	3.242567	-0.033792	2.886432
-1.741393	1.283436	2.734775	2.106349	-0.0719050000000001	3.095036	-0.901596	1.603459	0.461865	0.512988	2.911829	5.61811	0.928513	3.146989	0.074043	2.799849
-1.6688	1.436907	2.902099	2.263756	-0.149461	3.131723	-0.907749	1.739773	0.62462	0.783949	3.219077	5.863061	0.801561	3.060377	0.119919	2.729999
-1.681256	1.513642	2.898164	2.266483	0.156259	3.405874	-0.630606	2.085543	0.688105	0.895408	3.259398	5.885817	0.889195	3.120999	0.330075	2.795388
-1.784638	1.419298	2.764051	2.211054	0.049782	3.355899	-0.697397	2.116937	0.759629	0.939455	3.30247	5.809736	0.878481	3.073446	0.42324	2.766523
-1.777733	1.619965	2.843346	2.298257	0.187865	3.433805	-0.525412	2.300536	0.72534	0.92597	3.230257	5.728137	0.796668	2.943406	0.44909	2.619274
-1.804562	1.728637	2.845715	2.252757	0.173346	3.369726	-0.58042	2.193082	0.744266	0.900793	3.412916	5.78676	0.898042	2.919104	0.560122	2.551383
-1.880017	1.499938	2.545504	2.068164	0.124736	3.269007	-0.688713	2.039608	0.574637	0.625179	3.09522	5.50207	0.746283	2.838507	0.504769	2.434509
-1.823471	1.558394	2.602011	2.054658	0.143852	3.255131	-0.687674	1.965463	0.551878	0.5024	3.057621	5.416451	0.340178	2.448512	0.299099	1.982666
-1.697446	1.767169	2.626063	2.082374	0.254549	3.312105	-0.618178	2.022234	0.553032	0.548552	3.056628	5.478955	1.039233	3.091051	0.890216	2.669088
-1.264657	2.508965	3.090262	2.462408	0.28958	3.372874	-0.587626	2.094298	0.505008	0.522666	2.937135	5.42724	1.036841	3.107022	1.018819	2.721405
-1.118864	2.602129	3.034902	2.484413	0.691502	3.768887	-0.297544	2.508299	0.641353	0.793179	3.1583	5.716501	0.966998	3.12173	1.007707	2.694998
-1.020831	2.60376	2.952554	2.494337	0.656128	3.789506	-0.235619	2.677081	0.76115	1.050109	3.289215	5.850484	0.904232	3.183529	0.965151	2.726692
-0.695035	3.043423	3.337593	2.801862	0.707444	3.872915	-0.161353	2.895728	1.025745	1.481842	3.624599	6.167497	1.476788	3.710167	1.314509	3.172956
-0.699729	2.828373	3.199787	2.76923	0.855133	3.996711	-0.095678	3.004372	1.052314	1.602382	3.68718	6.297301	1.492405	3.744875	1.158283	3.124206
-0.57507	3.027842	3.365047	2.936389	0.874769	4.01038	-0.123161	2.971161	1.233781	1.845644	3.972592	6.523606	1.303976	3.59832	0.908437	2.857649
-0.432151	3.109019	3.642774	3.079116	0.871032	3.941114	-0.216612	2.796094	1.296693	1.810878	4.044971	6.558447	1.248681	3.480717	0.677088	2.63123
-0.695035	2.523612	3.226999	2.780499	0.75886	3.78291	-0.342823	2.545876	1.197047	1.585928	3.915352	6.403591	1.457383	3.640082	0.677088	2.76195
-0.739654	2.247851	3.199581	2.695245	0.797851	3.803529	-0.327377	2.386776	1.217823	1.500824	4.034328	6.451866	1.62232	3.752723	0.637629	2.74831
-0.776401	2.175607	3.171975	2.579042	0.587943	3.485267	-0.591096	1.990543	1.186051	1.312916	4.037966	6.332584	2.372738	4.336592	1.075255	3.356398
-0.869759	2.024111	3.090691	2.478734	0.647421	3.479136	-0.535443	1.920169	0.91583	0.90201	3.552615	5.909073	1.609277	3.738264	0.493187	2.63123
-0.912953	1.977469	3.227347	2.470901	0.86894	3.590593	-0.391117	1.96107	0.839471	0.703065	3.377648	5.740141	1.573229	3.701827	0.459676	2.578257
-1.079387	1.690915	3.062064	2.242596	0.757201	3.479136	-0.490409	1.863525	0.750228	0.555216	3.241132	5.519393	1.532993	3.654547	0.426341	2.564831
-1.003206	1.998982	3.338578	2.406353	0.478655	3.17814	-0.65137	1.701282	0.865813	0.731259	3.544613	5.699228	1.244174	3.408472	0.227408	2.344247
-1.318642	1.565612	2.870688	2.089743	0.525845	3.225914	-0.623041	1.846459	0.764255	0.664681	3.343837	5.577237	0.988673	3.12834	0.00222499999999992	2.008859
-1.398529	1.57495	2.952668	2.12419	0.30805	3.076767	-0.72803	1.794418	0.868839	0.863625	3.603297	5.774697	0.469909	2.659311	-0.35192	1.575038
-1.459406	1.544276	2.925254	2.11068	0.358756	3.130978	-0.698562	1.88329	0.812678	0.846392	3.482474	5.704961	0.785718	2.990299	-0.182895	1.895842
-1.690048	1.417769	2.816715	2.007934	0.196085	2.988775	-0.817437	1.841957	0.76115	0.874119	3.385658	5.641001	0.524384	2.738042	-0.453957	1.641366
-1.812367	1.119515	2.599084	1.903441	0.367409	3.165741	-0.642839	2.087998	0.560694	0.664681	2.956482	5.363614	0.591716	2.800923	-0.373547	1.728156
-1.717543	1.57495	3.007446	2.12419	0.448257	3.267201	-0.595773	2.195752	0.535911	0.681848	3.021522	5.392405	0.827424	3.028683	-0.221503	1.894128
-2.028135	0.998347	2.463926	1.761633	0.566087	3.452121	-0.386962	2.464365	0.621315	0.795839	3.152001	5.548712	1.289125	3.369111	0.128385	2.332111
-1.968258	1.021626	2.571878	1.840973	0.399016	3.308634	-0.447531	2.413241	0.739367	0.942017	3.306682	5.675884	1.257003	3.414189	0.101939	2.387343
-1.906706	1.073092	2.680917	1.873261	0.617269	3.500355	-0.283147	2.572464	0.964976	1.186093	3.7299	6.02137	1.34576	3.450568	0.178972	2.452133
-1.730403	1.457167	2.980512	2.066927	0.515008	3.403969	-0.326283	2.554977	1.096546	1.293125	3.922169	6.179343	1.336375	3.473878	0.246493	2.505816
-1.76754	1.187576	2.816715	1.932029	0.63669	3.555205	-0.115838	2.699191	1.109062	1.228503	3.700287	6.020443	1.188446	3.448415	0.144909	2.419417
-1.655776	1.374731	3.007252	1.996444	1.017203	3.871637	0.334035	3.128039	1.519094	1.679859	4.169904	6.314793	1.246573	3.355224	0.123684	2.38496
-1.710235	1.173186	2.734814	1.949042	1.327509	4.059651	0.921781	3.769185	1.775576	2.18917	4.330911	6.464221	1.60275	3.575533	0.299869	2.749906
-1.554759	1.374731	3.007252	2.11068	1.327509	4.032096	1.076429	3.918383	1.707283	2.108126	4.268736	6.409424	1.687166	3.61197	0.299869	2.763849
-1.515773	1.374731	2.897914	2.034478	1.263183	4.003528	0.98752	3.87772	1.492064	1.806464	4.006815	6.161608	2.187197	3.992867	0.600889	3.161308
-1.280855	1.748562	3.310009	2.238914	0.942182	3.71964	0.674545	3.517733	1.391736	1.545254	3.824404	6.037745	1.82485	3.708149	0.401454	2.832009
-1.357855	1.605665	3.089493	2.148846	1.14048	3.858159	0.734567	3.551543	1.411181	1.611838	3.988532	6.169644	2.199606	4.023323	0.671285	3.157107
-1.218128	1.85493	3.282154	2.326762	1.013484	3.83695	0.6599	3.53379	1.222979	1.388553	3.618672	5.903404	2.177244	3.983518	0.649092	3.078664
-1.276292	1.721753	3.199541	2.313305	1.219665	4.142868	0.81876	3.804875	1.287475	1.569969	3.745277	6.093091	1.85189	3.79724	0.399276	2.775712
-1.155082	2.01749	3.420873	2.555841	1.100011	4.086943	0.729648	3.841022	1.185471	1.523162	3.595173	5.992086	1.847045	3.833908	0.47695	2.85517
-1.178766	1.847897	3.254604	2.509442	1.1556	4.268887	0.868502	4.072096	1.197047	1.598136	3.677239	6.031882	2.273221	4.230942	0.83977	3.239237
-1.153403	1.977469	3.199996	2.525266	1.080222	4.198808	0.77637	4.055708	1.26233	1.756489	3.793252	6.161608	1.806154	3.811309	0.481827	2.74831
-1.223948	1.765864	3.035694	2.434661	1.187589	4.374272	0.928614	4.283113	1.232015	1.796473	3.717075	6.134023	1.640702	3.735372	0.393469	2.749906
-1.076222	1.993698	3.255007	2.581117	1.251828	4.395431	0.943313	4.317344	1.285759	1.793074	3.77132	6.11422	1.815757	3.941149	0.498151	2.920182
-1.19922	1.807298	3.117037	2.436303	0.969082	4.150139	0.703683	4.081308	1.358984	1.816488	3.966559	6.197092	1.879875	3.941149	0.519858	2.930542
-1.079387	2.002917	3.282154	2.513332	0.92624	4.059046	0.696083	3.962629	1.472081	1.767782	3.971084	6.203164	1.847793	3.879165	0.364298	2.628857
-1.083768	1.755382	3.227076	2.463246	1.149266	4.19221	0.830677	3.910208	1.531564	1.905048	4.255992	6.351965	1.468775	3.509587	0.16638	2.344438
-1.155082	1.6965	3.117855	2.36741	1.093729	4.101354	0.612028	3.740083	1.094686	1.474999	4.062513	6.028247	1.248681	3.416425	0.183474	2.410489
-1.067293	1.715801	3.14636	2.346844	0.705932	3.691476	0.201172	3.449004	0.298319	0.887846	3.559744	5.387095	0.115312	2.688073	-0.0959559999999999	2.408339
-0.750552	1.705285	3.089926	2.223422	0.709753	3.535714	0.06682	3.287512	0.263081	0.73343	3.634367	5.311879	-0.0482730000000001	2.719366	0.0734270000000001	2.801575
-0.451427	1.95077	3.172118	2.225311	0.568456	3.402738	-0.116457	3.107824	0.330683	0.56043	3.426102	5.243079	0.204606	2.88962	0.238525	2.971437
-0.116092	2.371606	3.393395	2.482718	0.564736	3.423422	-0.147755	3.038035	0.502069	0.643851	3.396437	5.358026	0.556595	3.255774	0.41111	3.308396
0.0588199999999999	2.536699	3.532441	2.613996	0.808573	3.733101	0.029431	3.217199	0.728231	0.88009	3.524209	5.654819	0.509266	3.289753	0.349078	3.249942
0.0735670000000002	2.593707	3.339168	2.653383	1.115695	4.108094	0.208441	3.440578	0.926486	1.131281	3.692937	5.937392	0.465421	3.233149	0.299869	3.132778
0.354042	3.029815	3.643013	3.004658	1.391265	4.453143	0.475979	3.83733	1.223358	1.503497	3.973267	6.313881	0.622269	3.425732	0.494894	3.415506
0.432852	3.149055	3.673185	3.189594	1.603562	4.735143	0.77488	4.192307	1.593215	2.036266	4.351658	6.724314	1.100935	3.842433	0.785655	3.862448
0.443893	3.3522	3.726526	3.303641	1.487659	4.615717	0.723039	4.251605	1.795688	2.30283	4.523781	6.914562	1.267831	3.97841	0.955797	4.137746
0.406884	3.457934	3.671516	3.320589	1.507828	4.69399	0.819956	4.440435	1.685126	2.205752	4.210344	6.65601	1.251737	3.978615	1.028373	4.342272
0.396986	3.516255	3.754889	3.33489	1.61972	4.784888	0.994726	4.655627	1.661413	2.181698	4.015039	6.530449	1.074959	3.792709	0.858023	4.232109
0.077766	3.181634	3.256322	2.967982	1.6365	4.815522	0.976995	4.70395	1.595167	2.066446	3.921338	6.366549	1.143945	3.906832	0.851862	4.419282
0.0588199999999999	3.192968	3.31168	2.936389	1.434906	4.558333	0.814899	4.55303	1.475729	1.892362	3.815388	6.133257	1.362238	3.966212	0.990803	4.627781
-0.0716349999999999	3.254172	3.282701	2.816763	1.32902	4.43826	0.828048	4.496742	1.537244	1.976104	4.034328	6.247361	1.221836	3.817741	0.918436	4.601518
-0.154615	3.311076	3.337842	2.692067	1.22306	4.325288	0.703683	4.42498	1.296271	1.605508	3.693596	5.962828	1.169541	3.756667	0.867971	4.5438
-0.386812	2.930431	3.007252	2.38062	1.080222	4.156802	0.58986	4.331564	1.155577	1.438255	3.572288	5.855002	0.914062	3.452689	0.687833	4.319698
-0.306246	3.230381	3.28248	2.492106	1.064148	4.234458	0.642585	4.402322	1.103501	1.333041	3.627326	5.781721	0.785718	3.411805	0.60708	4.247642
-0.520666	2.938731	3.063589	2.243626	0.890099	4.052235	0.517527	4.274892	0.890623	1.038309	3.28503	5.555798	0.915036	3.485696	0.773317	4.326782
-0.385014	3.335478	3.42045	2.419042	0.958078	4.123779	0.466778	4.267656	0.751099	0.864101	3.145242	5.387541	1.377556	3.859221	1.148712	4.648718
-0.566435	3.067505	3.199721	2.231371	0.807564	3.954586	0.405826	4.170669	0.927742	1.068365	3.479825	5.613015	1.086069	3.633327	1.060137	4.505854
-0.625443	3.051592	3.283076	2.214284	1.036374	4.170879	0.623396	4.292322	0.845088	0.920628	3.236663	5.441206	1.001808	3.514057	1.030239	4.292901
-0.790337	2.721839	3.007252	2.004061	1.036924	4.059236	0.569575	4.112434	1.123217	1.091436	3.738068	5.694546	1.591064	3.958098	1.45007	4.762632
-1.069313	2.307749	2.653395	1.70143	1.092399	4.038375	0.601502	4.040617	1.043236	0.915512	3.544479	5.520851	1.601664	3.862205	1.518436	4.621554
-0.869759	2.681543	3.089926	1.932029	1.199204	4.1009	0.652417	3.945086	1.086021	0.810513	3.534229	5.469199	1.475026	3.771982	1.433332	4.403027
-0.973221	2.434846	2.81611	1.72389	1.255574	4.038375	0.693245	3.876204	1.201561	0.846752	3.904338	5.629999	1.191239	3.500396	1.206415	3.994056
-0.919479	2.508965	2.871266	1.688722	1.057949	3.789506	0.517834	3.588469	1.100301	0.648426	3.717075	5.480587	1.430826	3.708149	1.314509	4.118266
-1.022223	2.316325	2.683119	1.517618	1.435705	4.073723	0.735859	3.723913	1.182291	0.73491	3.923902	5.654819	0.582515	2.929854	0.705117	3.172956
-0.72605	2.922279	3.145081	1.831558	1.061566	3.671781	0.34985	3.333539	1.053777	0.584931	3.7299	5.538318	1.014937	3.330283	0.985393	3.613241
-0.962015	2.395301	2.601121	1.534368	1.109842	3.734282	0.439768	3.415127	1.055622	0.653937	3.714576	5.590798	0.224966	2.700351	0.278003	2.792108
-0.803619	2.714131	2.899392	1.759913	1.032463	3.73971	0.359596	3.399506	1.066188	0.73563	3.740426	5.625096	0.198171	2.691547	0.17786	2.710279
-1.022223	2.411905	2.546617	1.496925	0.894422	3.615722	0.23277	3.373643	0.793414	0.516131	3.282737	5.266697	0.948989	3.294132	0.565308	3.293912
-1.011009	2.545883	2.734618	1.652284	0.784061	3.643638	0.184641	3.423533	0.610545	0.348418	2.877093	5.015502	0.224034	2.716126	-0.0469979999999999	2.607608
-1.211538	2.442647	2.545059	1.481483	0.677687	3.526174	0.13236	3.478885	0.480838	0.201312	2.678319	4.838122	0.56944	3.003898	0.100889	2.869195
-1.143718	2.586938	2.735885	1.589271	0.681807	3.594908	0.173828	3.550644	0.435635	0.15689	2.700492	4.741821	0.267253	2.647831	-0.229298	2.499549
-1.510998	2.126345	2.329605	1.253798	0.432506	3.396222	0.032073	3.416878	0.517688	0.236456	2.850975	4.809711	0.05674	2.406346	-0.481788	2.23032
-1.432952	2.395301	2.571977	1.365574	0.198805	3.157217	-0.204617	3.203601	0.282069	-0.100039	2.479277	4.482668	0.674378	2.921572	-0.0687199999999999	2.920865
-1.694628	1.937917	2.195522	1.103676	0.189035	3.144709	-0.154353	3.218684	0.348547	-0.023757	2.525702	4.478219	1.094077	3.197112	0.249436	3.308396
-1.554759	2.260308	2.463862	1.283576	0.338197	3.334655	-0.060279	3.35309	0.243823	-0.163234	2.319406	4.25887	0.887074	2.975143	0.11332	3.077237
-1.693148	2.008429	2.222063	1.090527	0.472774	3.349344	0.072672	3.447142	0.440936	0.107332	2.7009	4.584692	1.200423	3.24694	0.398648	3.493777
-1.531308	2.292816	2.410087	1.270525	0.315366	3.198127	-0.040896	3.399506	0.49883	0.141353	2.820778	4.595645	0.847518	2.99886	0.203199	3.305976
-1.580679	2.048703	2.303561	1.184364	0.460466	3.342088	0.16695	3.657765	0.547628	0.307309	2.83466	4.703202	0.592156	2.748227	0.068893	3.183371
-1.354717	2.387134	2.707414	1.474015	0.604915	3.520097	0.336655	3.876204	0.74054	0.625696	3.112622	4.946091	0.65243	2.986504	0.16638	3.419076
-1.29826	2.276151	2.68026	1.483657	0.847483	3.761344	0.513174	4.212554	1.123217	1.185358	3.735743	5.485414	0.508856	2.811779	0.155913	3.293912
-1.072865	2.666595	2.87112	1.710665	0.886951	3.774873	0.648044	4.373219	1.011098	1.156623	3.40739	5.29472	1.106088	3.436385	0.619687	4.049071
-1.020831	2.490515	2.898438	1.743607	1.009803	3.913605	0.801297	4.575989	1.114163	1.349273	3.406496	5.448374	1.421614	3.721626	0.845778	4.269647
-0.952566	2.626133	2.980009	1.803149	1.12041	4.080843	0.915499	4.721833	1.267633	1.475727	3.658274	5.594774	1.012437	3.311247	0.531814	3.841566
-0.95914	2.46653	2.898438	1.726471	1.299123	4.205941	1.087434	4.889128	1.28473	1.491795	3.539358	5.550481	1.196362	3.516925	0.693519	4.073727
-0.873292	2.649924	2.980009	1.761633	1.069029	3.976422	0.935367	4.715816	1.360748	1.464536	3.597213	5.542499	1.231674	3.548387	0.723081	4.080679
-0.874985	2.633622	3.007252	1.733601	1.056498	3.899312	0.866819	4.576514	1.492008	1.576326	3.886521	5.734563	1.170501	3.522003	0.695799	3.987585
-0.795491	2.697652	3.089542	1.750688	0.969579	3.816235	0.823473	4.497625	1.201561	1.116092	3.326331	5.329275	0.657688	3.024338	0.317772	3.434177
-0.828244	2.675069	3.062397	1.74462	1.115973	3.954741	0.996256	4.596306	1.190944	1.062813	3.376682	5.329275	0.747746	3.075583	0.443291	3.467629
-0.809306	2.819292	3.089926	1.710665	1.211862	4.024988	1.011346	4.603851	1.192133	1.078561	3.48157	5.447338	1.262804	3.498662	0.801517	3.727773
-0.992131	2.435461	2.789122	1.532089	1.215167	4.038147	1.06114	4.651424	1.2177	1.074738	3.609685	5.467646	0.941068	3.267249	0.644823	3.470949
-0.930109	2.619248	2.953049	1.652284	1.076	3.926787	0.970205	4.616993	1.24358	1.243334	3.717075	5.573292	0.725135	3.095297	0.504617	3.295971
-0.971475	2.482714	2.952535	1.603531	1.430827	4.261962	1.222461	4.915325	1.071165	1.084313	3.375199	5.372341	0.801504	3.120999	0.572825	3.205055
-0.892261	2.570351	3.007252	1.720193	1.160346	4.024988	1.027652	4.76084	1.192811	1.261942	3.700287	5.595535	1.076654	3.377867	0.761279	3.374904
-0.982763	2.455003	2.927497	1.650895	1.028591	3.919981	0.965419	4.691116	1.194167	1.296108	3.60075	5.598886	0.474494	2.796081	0.278003	2.780894
-1.005444	2.390795	2.926887	1.643046	1.199375	4.0871	1.036879	4.750805	1.253997	1.34388	3.765521	5.654819	0.57806	2.869516	0.36571	2.871978
-0.967836	2.516453	3.008007	1.697555	1.115695	4.003317	0.986431	4.655627	1.076816	1.034355	3.416526	5.323445	1.036841	3.16113	0.637629	3.253523
-1.153403	2.079373	2.707345	1.432906	1.175438	3.996407	1.014031	4.634751	1.068021	0.951041	3.346053	5.254883	0.83808	3.083205	0.498151	3.122839
-1.144293	2.144188	2.762818	1.431091	1.103874	3.885255	0.889242	4.427914	1.073648	0.88628	3.388056	5.226677	1.182292	3.319073	0.743791	3.319946
-1.125592	2.161353	2.709166	1.41049	1.024487	3.801954	0.831058	4.342931	1.149082	0.943802	3.607854	5.343612	0.474494	2.653597	0.294049	2.701163
-0.945214	2.539962	2.953049	1.635367	1.004683	3.76736	0.800398	4.315023	0.920823	0.584931	3.117107	4.980647	1.124915	3.16113	0.794138	3.187228
-0.957892	2.458804	2.847994	1.525629	1.091878	3.871247	0.892466	4.370862	1.169891	0.926754	3.694334	5.451758	0.657688	2.856268	0.538746	2.820864
-0.831852	2.585895	2.952554	1.637534	1.264837	4.04034	0.957331	4.518573	1.089856	0.909313	3.511539	5.376771	0.905853	2.971296	0.754912	3.024884
-0.744989	2.539962	2.87112	1.710665	1.191243	3.989426	0.957303	4.526498	1.2177	1.085845	3.631779	5.514282	0.729185	2.902449	0.741722	2.945494
-0.636354	2.86325	3.063589	1.902051	1.12786	3.947848	0.913746	4.565114	1.390065	1.432777	3.898425	5.788548	1.090925	3.290524	0.981121	3.408426
-0.575469	2.872321	3.091837	1.964917	1.247007	4.024235	0.988096	4.672347	1.400142	1.58074	3.837598	5.843591	0.776031	3.022712	0.732699	3.056906
-0.780765	2.580749	2.762082	1.776829	1.366755	4.205792	1.157165	4.898494	1.379599	1.6167	3.803732	5.81855	0.69311	2.925104	0.621001	2.9192
-0.818373	2.519389	2.763928	1.805545	1.29517	4.199458	1.122016	4.998323	1.373712	1.641102	3.738068	5.805398	0.709358	2.941089	0.560734	2.926541
-0.629131	2.850181	3.171975	2.05164	1.419877	4.305195	1.187545	5.026301	1.371235	1.616518	3.676494	5.743788	0.520059	2.793929	0.398695	2.804248
-0.659406	2.89583	3.118877	2.04083	1.223455	4.01038	1.028675	4.859622	1.603855	1.838578	4.154216	6.015275	0.770748	2.927952	0.488839	2.926541
-0.750552	2.673764	2.979968	1.933862	0.992881	3.802113	0.865099	4.654782	1.276912	1.427031	3.587964	5.561172	1.262804	3.303514	0.902284	3.500874
-0.905647	2.645225	2.87112	1.856296	0.965125	3.732801	0.847227	4.632751	1.260608	1.376469	3.722475	5.513659	0.813378	2.954484	0.526872	3.043639
-0.833581	2.785795	3.007687	1.888585	1.215167	3.885121	0.96858	4.695268	1.330347	1.394055	3.841931	5.62939	0.806438	2.93945	0.550919	3.062145
-0.790337	2.714131	2.897902	1.840973	1.199204	3.781187	0.936183	4.667081	1.235783	1.314782	3.682579	5.520255	1.241506	3.242567	0.880133	3.419166
-0.712462	2.898198	2.953183	1.909371	0.882241	3.491856	0.70859	4.469609	1.214038	1.321811	3.585711	5.461773	1.020171	3.042648	0.760472	3.331795
-0.560659	3.14486	3.062191	2.049864	1.167343	3.781187	0.96858	4.745502	1.244479	1.421956	3.484509	5.450285	0.961042	3.083716	0.77639	3.413358
-0.484479	3.279649	3.117082	2.114449	1.215231	3.802113	1.018919	4.81265	1.568144	1.922068	4.020094	5.92204	1.13726	3.241416	0.876957	3.531314
-0.602589	3.094338	2.81612	1.949042	1.247665	3.82335	1.007787	4.885396	1.301826	1.647404	3.436082	5.513897	1.072096	3.122758	0.76726	3.445029
-0.484479	3.29711	2.870634	2.038259	1.171892	3.795394	0.960735	4.845631	1.572122	2.072554	3.891181	5.875933	1.293061	3.282978	0.856113	3.724072
-0.600603	3.219688	2.707835	1.898074	0.906035	3.478172	0.679746	4.575753	1.649282	2.145462	4.046938	5.968327	0.92712	3.001539	0.60483	3.511766
-0.678284	3.158133	2.519413	1.792711	1.064148	3.581181	0.78425	4.682948	1.57873	2.054747	3.895372	5.781186	0.863139	2.915072	0.550919	3.572423
-0.750552	3.053021	2.491114	1.70318	1.088063	3.622547	0.802072	4.682242	1.253997	1.640683	3.282737	5.318665	1.394998	3.316766	0.811604	4.069838
-0.750552	3.216379	2.463891	1.689935	0.980959	3.484955	0.644204	4.475684	1.429427	1.820204	3.779904	5.613015	0.922668	2.858391	0.46536	3.671719
-0.97817	2.865982	2.143418	1.442621	1.19529	3.684736	0.802072	4.637328	1.077509	1.34388	3.067117	5.060646	0.370331	2.381968	0.134007	3.323007
-0.837132	3.276626	2.251384	1.58793	1.14048	3.622824	0.804116	4.556696	1.179798	1.509387	3.352359	5.245382	0.255238	2.283083	0.0369390000000001	3.290688
-0.674249	3.417762	2.438144	1.678826	1.332188	3.838485	0.875853	4.698101	1.087928	1.338139	3.162669	5.100489	0.843692	2.829945	0.539356	3.927064
-0.556561	3.709087	2.465626	1.779991	1.258927	3.746744	0.863408	4.688283	1.22145	1.563675	3.556845	5.358327	0.780631	2.710448	0.535291	3.804821
-0.570039	3.573752	2.464535	1.761633	1.302861	3.822935	0.928247	4.834199	1.157241	1.556948	3.342465	5.30977	0.880265	2.677854	0.638053	3.813151
-0.453379	3.541702	2.518918	1.855463	1.476052	4.088908	1.113173	5.082728	1.30954	1.814002	3.634056	5.532273	0.61758	2.580613	0.566742	3.825506
-0.183279	3.919458	2.871667	2.145126	1.6365	4.235108	1.247621	5.265671	1.570122	2.211736	4.060516	5.881311	0.8702	2.809283	0.845778	4.054416
-0.141793	3.901488	2.818821	2.196903	1.491026	4.086943	1.20447	5.250301	1.570122	2.272438	3.922169	5.875202	0.894019	2.93945	1.085437	4.210955
0.193898	4.338097	3.392963	2.573177	1.653912	4.285862	1.337665	5.500711	1.788875	2.565263	4.203541	6.127117	1.119987	3.03578	1.381476	4.290442
-0.0503509999999998	3.642639	2.980213	2.273647	1.806324	4.361517	1.439675	5.547145	1.728085	2.47335	3.978128	6.022068	1.373721	3.387271	1.730428	4.539668
-0.11799	3.474897	3.117082	2.292215	1.984507	4.516315	1.643766	5.691734	1.757769	2.51084	3.894373	6.014988	1.450568	3.264655	1.840169	4.290442
-0.0777049999999999	3.671619	3.315302	2.417992	2.009239	4.445798	1.647549	5.668431	1.94369	2.583604	4.138547	6.144879	1.399528	3.37498	1.966543	4.30134
-0.325523	3.18906	3.089925	2.148846	2.169085	4.509709	1.730849	5.685754	2.044439	2.62033	4.3632	6.286679	1.241506	3.145579	1.866953	3.877629
-0.406675	3.266901	3.09336	2.116485	2.028941	4.31815	1.702891	5.571451	2.012921	2.589723	4.351658	6.289537	1.006085	2.861193	1.783418	3.467629
-0.302648	3.417762	3.309835	2.211827	1.94925	4.249792	1.62418	5.518071	2.065453	2.614176	4.398354	6.306341	1.414133	3.314231	2.13109	3.77361
-0.495539	3.031936	3.117855	2.057819	2.169085	4.439218	1.795691	5.67412	2.060608	2.634601	4.428555	6.372625	1.251737	3.193358	2.013322	3.516029
-0.362116	3.262569	3.365164	2.194616	2.412884	4.70251	1.978299	5.935442	2.11633	2.700518	4.622866	6.433465	1.338567	3.107022	1.996295	3.330018
-0.44899	3.11116	3.175831	2.116485	2.18428	4.459215	1.882504	5.831822	2.050709	2.669379	4.517993	6.329553	1.328276	3.265387	1.89959	3.40958
-0.275724	3.378082	3.642933	2.405801	2.424524	4.694964	2.088025	6.105027	2.076404	2.737569	4.524111	6.42191	1.408655	3.277795	1.835187	3.265158
-0.547773	2.820761	3.12112	2.082724	2.35976	4.610199	1.980419	5.976296	2.057182	2.69401	4.546798	6.366549	1.419688	3.228841	1.667482	3.143401
-0.558634	2.957757	3.282422	2.151016	2.230941	4.474446	1.877429	5.824934	1.935473	2.504153	4.282572	6.166634	0.988673	2.872055	1.22886	2.777917
-0.720138	2.654068	3.173142	2.019816	2.200593	4.388453	1.81757	5.692755	2.004447	2.504044	4.526199	6.251743	1.024186	2.929854	1.133176	2.820864
-1.009202	2.244696	2.952668	1.70318	2.14412	4.318506	1.726946	5.501476	1.786522	2.120881	4.193853	5.969715	1.405362	3.313993	1.24903	3.047223
-1.138251	2.069049	2.709166	1.504899	1.919124	4.093958	1.527815	5.19307	1.685126	1.893587	4.143434	5.862306	1.363869	3.197112	1.155535	2.897618
-1.148081	1.946279	2.788884	1.457146	1.903936	4.080843	1.522438	5.094693	1.636726	1.760714	4.017841	5.792741	1.481489	3.289914	1.194071	2.865968
-1.198164	1.778492	2.519413	1.326976	1.785325	3.85768	1.585251	5.080702	1.863934	2.054747	4.300404	5.992086	0.959025	2.82925	0.8558	2.513161
-0.980745	2.358759	2.789382	1.684561	1.846112	3.954652	1.838023	5.409544	1.820064	2.097129	4.176726	5.939084	1.200587	3.037465	1.003355	2.755419
-1.162964	1.939558	2.464329	1.522738	2.135474	4.332462	2.177268	5.807844	1.813683	2.199578	4.191303	6.034453	1.182292	2.992924	0.985393	2.724154
-0.905647	2.38	2.707345	1.789931	1.769951	4.038799	1.908964	5.651122	1.861938	2.357626	4.310588	6.148748	0.778299	2.691547	0.632827	2.41271
-0.957892	2.312246	2.681329	1.868241	1.87845	4.240892	2.010877	5.82006	1.740614	2.272438	4.080841	6.016704	1.024188	2.850439	0.794138	2.566055
-0.967836	2.229315	2.598955	1.86939	1.86227	4.290187	1.947566	5.808311	1.865992	2.43674	4.352194	6.246368	0.971134	2.800923	0.671285	2.56805
-1.001493	2.239636	2.626825	1.943943	1.371185	3.906416	1.584934	5.466643	1.696884	2.248284	4.091667	6.057552	0.823115	2.642747	0.554873	2.447363
-1.018116	2.274852	2.709794	2.074248	1.555651	4.129563	1.697493	5.651122	1.640707	2.205752	3.940014	5.99279	0.606187	2.508245	0.315766	2.240625
-1.003492	2.239636	2.789736	2.159075	1.810661	4.503188	1.913074	5.859699	1.613737	2.229959	3.862644	6.013638	1.052322	2.893952	0.605053	2.721405
-1.067466	2.104054	2.789122	2.172087	1.769951	4.446614	1.833278	5.830611	1.580347	2.181347	3.836928	6.041719	1.512451	3.408472	1.013224	3.424652
-1.044896	2.05754	2.762082	2.176114	1.491068	4.234458	1.63285	5.604908	1.880643	2.52225	4.372706	6.472233	1.163235	3.180616	0.769992	3.198937
-1.011009	2.071324	2.897986	2.202351	1.825802	4.53703	1.869552	5.860008	1.897404	2.546744	4.343937	6.52631	0.814437	2.875276	0.531814	2.85517
-1.057506	1.950768	2.709794	2.061596	2.001859	4.687456	1.944627	5.95879	1.853423	2.47335	4.222372	6.501901	1.196362	3.235951	0.816497	3.372184
-1.028021	1.828849	2.653103	2.011852	1.87919	4.594334	1.890186	5.860008	2.067598	2.706281	4.624931	6.838763	1.366615	3.436385	0.927353	3.696189
-0.824441	2.064139	2.952783	2.137985	1.758308	4.453143	1.814451	5.755175	2.021247	2.595751	4.408942	6.704961	1.055107	3.20636	0.701053	3.475067
-0.741036	2.127379	3.062397	2.159075	1.88076	4.539536	1.900475	5.859699	2.001346	2.553538	4.382632	6.71734	0.780631	2.93945	0.501023	3.260493
-0.911875	1.755661	2.737193	1.884768	1.749623	4.38935	1.843903	5.772771	2.228266	2.798796	4.811339	6.985203	0.867105	3.035253	0.481475	3.466906
-0.655203	2.184541	3.200836	2.091165	1.665419	4.270134	1.783008	5.616254	2.206836	2.675529	4.706108	6.855701	0.664996	2.738042	0.244449	3.06939
-0.491226	2.510498	3.394317	2.209622	1.590529	4.124813	1.699567	5.54108	1.898003	2.296817	4.166688	6.446489	1.689485	3.575533	0.934799	4.076788
-0.659406	2.089226	3.035536	1.968994	1.693015	4.220567	1.843903	5.604908	2.033315	2.468207	4.358198	6.581894	0.765952	2.760377	0.228451	3.1389
-0.636354	2.207775	3.145979	2.049006	2.038461	4.495769	2.058426	5.83068	2.098077	2.535093	4.449968	6.627956	1.028305	2.896787	0.40419	3.279556
-0.518653	2.420343	3.228061	2.142061	2.034066	4.523666	2.104917	5.90635	1.907223	2.352127	4.181442	6.395545	1.409146	3.231041	0.717018	3.593619
-0.71157	2.051524	2.846316	1.910039	1.921723	4.511802	2.050159	5.90639	2.063861	2.583749	4.552298	6.624628	1.013797	2.938194	0.454857	3.179143
-0.51659	2.309611	3.090261	2.108107	2.013575	4.615717	2.119745	5.982183	2.068427	2.596299	4.456564	6.60144	0.971948	2.892083	0.41111	3.021756
-0.68235	2.039855	2.81612	1.939928	2.304652	4.900834	2.312749	6.216648	2.117402	2.740697	4.660424	6.790065	0.997632	2.885978	0.409807	2.960765
-0.580515	2.311498	2.877703	2.083443	2.194146	4.815522	2.187434	6.122601	2.061613	2.626595	4.565095	6.659496	1.327901	3.304383	0.70861	3.399353
-0.461563	2.466392	3.144452	2.189173	2.102288	4.782457	2.134928	6.128748	2.03654	2.620651	4.588965	6.690787	1.017951	3.059339	0.463696	2.960571
-0.585322	2.412652	2.957551	2.036634	2.000687	4.643167	2.031471	5.918695	2.100414	2.67028	4.791686	6.848501	1.138869	3.114221	0.437566	2.909095
-0.589161	2.418707	2.980419	1.996444	1.819453	4.495769	1.833278	5.789964	1.779268	2.30968	4.211875	6.425119	1.273155	3.203636	0.52077	3.024884
-0.860075	2.011209	2.627265	1.679736	1.91275	4.616621	1.961457	5.94711	1.654104	2.127406	3.987574	6.282353	1.204585	3.186018	0.437566	2.974872
-0.636354	2.668735	3.228061	1.931107	1.717634	4.36887	1.705566	5.679833	1.651049	2.09065	4.152749	6.282127	1.233481	3.277768	0.468019	2.997079
-0.820444	2.390795	2.871929	1.717352	1.62803	4.283418	1.63285	5.628187	1.63719	2.090998	4.166688	6.298739	1.196141	3.204607	0.383623	2.875272
-0.831852	2.418707	2.953183	1.6995	1.647017	4.349713	1.699567	5.720508	1.584592	2.012136	4.005952	6.136025	1.120574	3.003898	0.38208	2.763849
-0.857993	2.431724	2.873113	1.642164	1.692268	4.311315	1.678903	5.651512	1.649563	2.084826	4.076062	6.179484	1.231027	3.131811	0.470053	2.950568
-0.85082	2.482208	2.870749	1.648532	1.619717	4.255121	1.677001	5.639844	1.532838	1.964022	3.967779	6.060741	1.604113	3.387271	0.767626	3.260995
-1.086225	2.00926	2.410272	1.41434	1.482922	4.156939	1.577437	5.530887	1.549591	2.000229	3.952493	6.037843	1.231674	3.084905	0.538746	2.981438
-0.824441	2.634469	2.952612	1.814594	1.455884	4.18629	1.561672	5.506516	1.671839	2.127049	4.190085	6.157211	1.431169	3.277768	0.66746	3.169677
-0.967836	2.403557	2.680243	1.714472	1.454987	4.17119	1.518604	5.467101	1.640747	2.108738	4.175798	6.176937	1.335274	3.19251	0.663379	3.066874
-0.976569	2.434846	2.735421	1.771381	1.453143	4.173458	1.518007	5.529527	1.547396	2.042388	3.913827	5.995834	1.427346	3.200025	0.738112	3.239237
-0.928276	2.587122	2.788956	1.894141	1.583499	4.311315	1.614314	5.622573	1.655342	2.217875	4.011118	6.124515	1.23977	3.075583	0.649092	3.242017
-0.854293	2.801686	3.007446	1.979332	1.619717	4.290187	1.597713	5.599738	1.784876	2.449333	4.271528	6.320307	1.77699	3.558974	1.044155	3.680611
-1.033386	2.458368	2.68026	1.748379	1.426787	4.107898	1.481846	5.496538	1.753346	2.388072	4.168187	6.260054	1.40856	3.222	0.816497	3.519983
-0.892261	2.850181	2.952535	1.96608	1.519052	4.19191	1.627166	5.681029	1.845107	2.52225	4.357058	6.388678	1.289125	3.18173	0.845778	3.5677
-0.930109	2.666595	2.898222	1.915039	1.818097	4.43849	1.825181	5.959216	1.628323	2.278416	3.836928	6.064728	0.985701	2.875276	0.648828	3.251227
-0.960661	2.706484	2.899273	1.82634	1.8739	4.511802	1.84186	6.034776	1.762281	2.486117	4.151403	6.292228	0.950859	2.951055	0.751247	3.516029
-0.947126	2.739545	2.87112	1.843318	1.783091	4.404027	1.818597	5.982183	1.833501	2.590469	4.208895	6.346265	1.049039	3.03501	0.94938	3.763343
-0.936951	2.705575	2.87096	1.778671	1.838444	4.402778	1.856685	5.98843	1.875387	2.63326	4.239446	6.364305	0.868155	2.818949	0.864259	3.557065
-1.029858	2.491012	2.707414	1.680663	1.660106	4.226919	1.708391	5.82006	2.118571	2.873076	4.737652	6.634849	0.654997	2.686149	0.802734	3.517477
-1.098355	2.364036	2.627558	1.596315	1.688179	4.226804	1.719503	5.803409	2.065382	2.874962	4.634185	6.598213	0.931469	2.914113	1.054612	3.810915
-0.884881	2.692291	2.871478	1.864216	1.764979	4.289957	1.752763	5.750796	1.912738	2.620651	4.295163	6.290804	1.028498	2.938486	1.171299	3.77907
-0.94008	2.531074	2.818045	1.88498	1.674239	4.242432	1.609571	5.593065	2.126707	2.965574	5.032593	6.644272	1.325189	3.205094	1.579879	4.075048
-1.166811	2.00926	2.410272	1.763842	1.956535	4.48046	1.856685	5.959216	1.787117	2.688311	4.5441	6.242141	0.678408	2.656118	1.22886	3.645629
-0.888668	2.506411	2.788956	2.070858	2.097658	4.659526	1.948847	6.17549	1.395135	2.346377	4.03604	5.833516	0.513038	2.511986	1.22886	3.768955
-0.738986	2.612965	2.845617	2.053159	1.672066	4.128873	1.432366	5.797163	1.060707	2.086478	4.120808	5.807538	0.215655	2.425916	1.310954	3.923963
-0.537622	2.866923	2.953049	2.07885	1.733617	4.059811	1.233048	5.628187	0.898149	1.760091	3.931796	5.616472	-0.228533	2.238974	1.031729	3.727773
-0.577573	2.388395	2.681329	1.847323	1.580078	3.892638	1.03135	5.357269	1.081581	1.873858	4.029116	5.732398	-0.215895	2.320115	1.015711	3.799529
-0.430081	2.548579	2.871929	1.968994	1.483429	3.816235	0.998702	5.305842	1.320291	2.133633	4.186285	5.955169	0.138216	2.607111	1.076322	3.986658
-0.442036	2.37123	2.821378	1.910039	1.633602	4.011949	1.166409	5.48919	1.418812	2.205618	4.132312	6.022921	-0.096213	2.37124	0.749544	3.537743
-0.294846	2.585895	3.171979	2.070858	1.844345	4.270997	1.391442	5.679809	1.681115	2.523539	4.319009	6.328239	0.648057	3.003898	1.20038	3.956245
-0.347642	2.478328	2.982653	1.994146	2.338993	4.751962	1.854314	6.140416	1.952449	2.824069	4.658918	6.568871	0.652144	3.039712	1.098682	3.847398
-0.273679	2.562103	3.089686	2.074833	2.292962	4.701445	1.898356	6.216584	1.991233	2.905831	4.600499	6.626213	0.388	2.867654	0.84223	3.531314
-0.0822989999999999	2.701041	3.256952	2.252014	2.239976	4.744429	1.997285	6.334529	2.103761	3.015926	4.630227	6.682799	0.904232	3.350725	1.127202	3.903953
-0.313937	2.299984	2.952612	1.956893	2.316448	4.750179	2.035409	6.357989	2.257992	3.2024	4.881978	6.814013	0.709358	3.132622	0.94938	3.546727
-0.326436	2.326767	2.818821	1.901565	2.040433	4.510642	1.83967	6.205098	1.996042	2.817152	4.397004	6.417388	0.887682	3.244408	0.997291	3.660631
-0.258535	2.554015	3.089925	2.042084	1.88527	4.397544	1.743286	6.128748	1.845107	2.663294	4.179069	6.199064	1.204585	3.416425	1.171936	3.888653
-0.245998	2.645225	3.147257	2.099593	2.247121	4.715451	1.97621	6.352076	1.632713	2.370037	3.775749	5.924756	0.75488	3.03501	0.798296	3.362354
-0.349859	2.619248	3.118318	2.032089	2.06344	4.552415	1.847976	6.234252	1.659724	2.418842	3.923902	5.989499	0.879355	3.100368	0.856113	3.430203
-0.474468	2.373463	2.818155	1.859598	2.031321	4.567335	1.854314	6.287649	1.582458	2.339329	3.84729	5.923696	0.631937	2.866467	0.619687	3.082165
-0.404198	2.522243	3.089685	1.986998	2.037325	4.593697	1.904977	6.322531	1.559782	2.370037	3.816542	5.900755	0.656331	2.918726	0.582762	3.11326
-0.596482	2.159063	2.735962	1.742318	1.818097	4.346919	1.697493	6.1754	1.624831	2.474552	3.991306	6.044256	0.704644	2.927952	0.550919	3.132843
-0.694997	2.167467	2.627796	1.608734	1.785978	4.424535	1.747546	6.26367	1.452137	2.309218	3.740018	5.837294	0.591482	2.822743	0.498978	2.981438
-0.799584	1.962747	2.545653	1.504899	1.639903	4.226919	1.564549	6.064136	1.555485	2.436885	3.949636	6.017652	0.941068	3.205094	0.735433	3.336932
-0.736888	2.231055	2.70863	1.604633	1.706058	4.235108	1.559627	6.081615	1.533986	2.407912	3.864057	5.969412	0.41375	2.736	0.339557	2.879864
-0.736888	2.083295	2.601121	1.571251	2.051884	4.616621	1.881551	6.435159	1.601325	2.47361	3.936722	5.976903	-0.202423	2.19995	-0.0828629999999999	2.423895
-0.795491	1.893057	2.709496	1.555171	1.926269	4.553427	1.868977	6.411673	1.686759	2.57784	4.05733	6.082532	0.220263	2.591923	0.262152	2.839615
-0.818373	1.775856	2.438485	1.409487	1.915681	4.459215	1.839952	6.316657	1.931613	2.88918	4.502242	6.463251	0.346816	2.769915	0.41172	3.05365
-0.72605	1.883151	2.62602	1.556452	1.839871	4.417934	1.829168	6.275419	1.815777	2.696857	4.230114	6.176092	0.708798	3.034796	0.66746	3.466906
-0.528954	2.193213	2.873845	1.729741	1.944849	4.491744	1.863189	6.359308	1.763644	2.540701	4.009156	6.010512	0.844052	3.09647	0.880133	3.654859
-0.608252	1.891435	2.707487	1.590262	1.68573	4.270134	1.720211	6.193144	1.917322	2.787446	4.429852	6.290804	0.730773	3.047705	0.888277	3.607762
-0.482011	2.196753	2.768324	1.763486	1.656757	4.255587	1.732846	6.228322	1.894812	2.818961	4.368036	6.315237	0.509646	2.770442	0.791939	3.321391
-0.554437	2.017535	2.627796	1.658913	1.899589	4.452464	1.95532	6.482135	1.825538	2.796746	4.075536	6.220505	0.587067	2.854819	0.965151	3.479978
-0.394302	2.245935	2.709166	1.738213	1.807968	4.404988	1.934147	6.577587	2.109986	3.249169	4.655785	6.621289	0.602531	2.825655	1.075255	3.534451
-0.124965	2.756948	3.091837	2.074248	1.88527	4.504259	2.064876	6.768433	1.873089	3.041084	4.157758	6.253695	0.525935	2.738006	1.126732	3.570749
0.189681	3.205292	3.4826	2.367097	2.006705	4.634507	2.127252	6.913731	2.030882	3.353939	4.417752	6.574699	0.856763	3.056878	1.507098	4.032471
0.168715	2.979037	3.310009	2.292215	2.383414	4.968294	2.464885	7.28138	2.282009	3.694059	4.84522	6.849866	1.161687	3.307972	1.846068	4.364597
0.32441	3.333325	3.430013	2.440298	2.388267	4.948168	2.504123	7.336448	2.299424	3.669246	4.777248	6.75048	1.200899	3.500364	1.980882	4.634043
0.443893	3.246019	3.587223	2.470901	2.724935	5.282668	2.796165	7.688293	2.456879	3.882216	5.005783	6.967544	1.273394	3.534527	2.099997	4.599182
0.38196	3.026609	3.261528	2.273751	2.745013	5.180775	2.811715	7.59624	2.508558	3.793541	5.133504	6.919964	1.332781	3.475456	2.218817	4.53247
0.536805	3.229944	3.448415	2.329062	2.51895	4.926423	2.619975	7.422014	2.527265	3.808185	5.109519	6.893569	1.494582	3.731534	2.330568	4.684991
0.650407	3.314952	3.534901	2.27324	2.714658	5.071142	2.773521	7.507827	2.632836	3.87265	5.315195	6.99187	1.148119	3.351533	2.03598	4.252961
0.852788	3.548031	3.698891	2.36741	2.748024	5.097415	2.845377	7.54927	2.505634	3.676614	4.907327	6.792483	0.56944	2.798163	1.622328	3.712754
0.939068	3.766503	3.794337	2.380565	2.822687	5.147337	2.895105	7.58626	2.569924	3.677168	5.014886	6.813668	0.765262	3.034796	1.709545	3.868811
0.901416	3.806072	3.72883	2.320118	2.589438	4.938854	2.780818	7.476343	2.640442	3.766418	5.142845	6.905446	1.241968	3.423997	1.981929	4.181514
0.669841	3.386905	3.284115	2.065947	2.44989	4.786497	2.717088	7.370929	2.608041	3.794138	5.000277	6.842961	1.226908	3.351533	1.831322	4.059303
0.686958	3.589459	3.39308	2.129965	2.454511	4.772458	2.684867	7.377221	2.716137	3.923694	5.277663	6.950129	0.749834	2.902449	1.317405	3.387828
0.611634	3.742635	3.395625	2.196903	2.451019	4.825723	2.713928	7.464369	2.479755	3.743217	4.77058	6.638734	0.791929	2.93945	1.145575	3.331506
0.536805	3.837067	3.476242	2.2525	2.408081	4.813537	2.657114	7.4601	2.414877	3.751982	4.709479	6.604403	0.993555	3.01498	1.1093	3.297144
0.0438349999999996	3.168652	2.872474	1.838642	2.309679	4.733056	2.602692	7.458916	2.266996	3.624022	4.493495	6.412923	1.12356	3.139162	1.114864	3.386496
-0.00772400000000006	3.376465	3.007298	1.994838	2.057747	4.542336	2.410793	7.332138	2.234398	3.619678	4.641237	6.453039	0.917426	2.935702	0.850334	3.158811
-0.277719	3.003478	2.76172	1.797652	2.403067	4.862976	2.622481	7.588541	2.137394	3.5158	4.480635	6.363124	0.585734	2.628025	0.499586	2.893166
-0.39841	2.979495	2.707414	1.818494	2.000529	4.563837	2.295609	7.283457	2.077832	3.468083	4.536773	6.303727	0.695509	2.783135	0.566742	3.066874
-0.394302	3.046706	2.871929	1.893264	1.908412	4.505555	2.19302	7.25209	1.904884	3.247212	4.193853	6.048035	0.568899	2.659311	0.43769	2.909095
-0.507286	2.865982	2.761883	1.789931	2.129975	4.750373	2.320375	7.431066	1.983636	3.383559	4.398083	6.245233	0.41375	2.579208	0.389244	2.950568
-0.727923	2.498251	2.544862	1.580913	1.987905	4.588757	2.200656	7.286941	1.894812	3.279298	4.207116	6.084991	0.309776	2.444674	0.327379	2.909095
-0.501637	2.899275	2.952783	1.860235	1.88982	4.503188	2.149645	7.232049	2.142624	3.599487	4.692939	6.420543	0.292742	2.5209	0.327629	2.985884
-0.507286	2.769604	3.062143	1.823935	2.135826	4.705321	2.298106	7.380888	2.043435	3.378777	4.367204	6.176937	1.355027	3.377867	1.058509	4.028211
-0.4365	2.763241	3.090261	1.826425	2.10696	4.645585	2.303017	7.353928	2.331746	3.73352	4.882428	6.510814	0.397407	2.508075	0.42324	3.295971
-0.621557	2.276381	2.816715	1.605471	2.309143	4.78573	2.547369	7.547293	2.164684	3.480418	4.450891	6.166634	0.648057	2.656118	0.593202	3.470949
-0.545499	2.284005	2.788884	1.552708	2.478229	4.881517	2.632328	7.567758	2.374252	3.678533	4.887492	6.436606	0.835098	2.738042	0.761279	3.634655
-0.571114	2.28624	2.763928	1.525629	2.531372	4.901892	2.743713	7.622364	2.164725	3.350829	4.32463	6.029508	1.878769	3.564306	1.558784	4.697075
-0.340692	2.560675	3.014055	1.733955	2.641746	4.934653	2.879048	7.687609	2.424239	3.677168	4.655785	6.28074	1.332781	3.122758	1.218718	4.179524
-0.148431	2.682005	3.117855	1.877176	2.812965	5.138306	3.019978	7.842668	2.787107	4.13152	5.25847	6.747186	1.455629	3.289753	1.366096	4.369632
0.0247129999999998	2.804201	3.202056	2.011038	2.943805	5.322703	3.16745	8.049306	2.605396	3.940334	4.869287	6.545486	1.337312	3.158796	1.282262	4.137746
0.0423709999999997	2.844041	3.238792	2.024324	2.784101	5.162959	3.032239	7.900476	2.76459	4.197181	5.171519	6.81086	1.054863	2.907703	1.121083	3.914916
0.321858	3.243432	3.593109	2.303126	2.536213	4.938854	2.860316	7.744834	2.89601	4.420293	5.570163	7.090709	1.133331	3.071119	1.262956	4.078843
-0.12455	2.537442	2.960882	1.864231	2.356278	4.839647	2.736225	7.641859	2.456879	3.861441	4.714265	6.520634	1.556104	3.412651	1.608858	4.295044
-0.00852299999999984	2.695398	3.012971	1.893289	2.467046	4.946569	2.763469	7.690021	2.509988	3.935007	4.947392	6.668498	1.39282	3.314231	1.461581	4.065006
-0.250377	2.371076	2.734618	1.643046	2.738291	5.269333	2.987498	7.948026	2.219453	3.538874	4.44382	6.266082	1.019511	2.927952	1.167851	3.582872
-0.18442	2.539962	2.873113	1.675687	2.288856	4.839647	2.550918	7.488329	2.329185	3.640127	4.754439	6.449878	1.132065	3.03501	1.272979	3.644854
-0.296872	2.442595	2.843346	1.552708	1.88527	4.417934	2.225688	7.146589	2.182042	3.443453	4.600499	6.23331	0.867105	2.879435	1.1397	3.532467
-0.31183	2.491012	2.84408	1.493002	1.826268	4.433812	2.18364	7.081221	2.231975	3.46138	4.761622	6.321725	0.880572	2.794433	1.096915	3.366406
-0.671817	1.971112	2.385432	1.137367	2.02736	4.605269	2.273601	7.209001	2.097548	3.261414	4.597562	6.18099	0.729185	2.674019	1.034819	3.311567
-0.484389	2.330031	2.549645	1.305899	1.935481	4.560958	2.234726	7.117657	2.090296	3.241489	4.614599	6.083683	0.402254	2.376557	0.876957	3.047223
-0.383166	2.419623	2.789234	1.429272	2.217054	4.852241	2.460199	7.365902	1.986555	3.128432	4.276578	5.876818	1.248681	3.060377	1.583189	3.706418
-0.316993	2.546604	2.634094	1.450877	2.192792	4.79935	2.425662	7.254901	1.99842	3.161318	4.215485	5.891772	0.816597	2.781797	1.330541	3.368398
-0.03305	2.802195	2.9254	1.737231	2.240968	4.934245	2.523847	7.4601	2.39669	3.741685	4.986942	6.454718	0.493791	2.518822	1.2221	3.220033
0.207403	3.097371	3.04576	1.965307	2.470713	5.210195	2.783897	7.682782	2.467291	3.866289	4.875889	6.531358	0.813378	2.747375	1.509253	3.39798
0.798859	3.921585	3.75703	2.520442	2.668633	5.372879	2.89758	7.888392	2.716712	4.165276	5.15698	6.782886	1.328276	3.328367	2.025226	3.968717
0.674763	3.354	3.257677	2.269004	2.812965	5.588708	3.154982	8.190956	2.82757	4.402279	5.20523	6.935446	1.361748	3.307972	2.170942	4.008947
1.114843	3.877569	3.72725	2.670645	2.822687	5.64885	3.227623	8.304291	2.939219	4.596004	5.249169	7.053807	1.426169	3.412651	2.290611	4.127172
1.238231	4.092092	3.692516	2.682301	2.923639	5.693283	3.29805	8.392378	3.077128	4.76701	5.455474	7.205418	1.27105	3.476332	2.270757	4.121152
1.324657	4.043124	3.726921	2.623783	2.897516	5.721748	3.328251	8.498448	3.061437	4.776547	5.303489	7.142572	1.200587	3.375254	2.281092	4.106936
1.236633	3.809541	3.510767	2.460737	2.834144	5.651416	3.30919	8.438688	3.172266	4.967119	5.558058	7.406785	0.962682	3.254739	2.158914	3.993976
1.342923	4.132573	3.704004	2.537614	2.738358	5.578591	3.258897	8.413929	3.110589	4.81442	5.478718	7.283054	1.205108	3.412175	2.293453	4.09555
1.144741	3.824373	3.396422	2.269004	2.614638	5.528971	3.198031	8.352257	2.991454	4.693978	5.303797	7.152798	1.059921	3.253317	2.153747	3.971482
1.024039	3.728937	3.282422	2.087921	2.526571	5.401108	3.014745	8.161051	3.032015	4.719024	5.558058	7.255087	0.900961	2.975143	1.927016	3.692556
0.93101	3.742635	3.120278	1.960431	2.480034	5.335126	2.944904	8.099063	2.779343	4.368468	5.284777	6.895105	0.660615	2.807462	1.831322	3.747747
0.599772	3.409229	2.843755	1.70143	2.180316	5.061586	2.684218	7.80946	2.485074	4.090837	4.925335	6.572474	0.70473	2.749157	1.789609	3.799529
0.163574	2.93167	2.383873	1.360312	2.194553	5.041423	2.587901	7.70549	2.289267	3.799511	4.760657	6.329874	0.703545	2.793851	1.738745	3.910665
0.271286	3.509982	2.681329	1.63811	1.789943	4.654493	2.210087	7.313722	2.316721	3.889199	5.039837	6.484342	0.652862	2.662237	1.696018	3.894396
0.0179039999999999	3.190178	2.518202	1.551141	1.9592	4.878711	2.317803	7.456262	2.296681	3.894602	4.990779	6.464572	0.909908	2.844987	1.812398	4.122307
0.165831	3.648753	2.898907	1.830455	1.921723	4.751962	2.247174	7.299722	2.374246	3.988545	5.201904	6.593444	0.808892	2.758856	1.66991	4.075048
-0.00127899999999981	3.582519	2.871478	1.826425	1.940145	4.80408	2.288299	7.374335	2.351651	3.97753	5.118178	6.58491	0.817962	2.758856	1.62481	4.210955
-0.0908800000000001	3.465887	2.870634	1.810735	1.88527	4.751962	2.276736	7.31723	2.311665	3.926357	5.05246	6.591548	1.143616	3.056878	1.753664	4.540434
-0.257962	3.432454	2.822415	1.721557	1.964063	4.821398	2.28348	7.291352	2.464774	4.056803	5.404556	6.771149	1.208848	3.073446	1.789609	4.759975
-0.167552	3.763784	3.063589	1.851372	1.954378	4.784049	2.312751	7.247929	2.297045	3.757334	4.971559	6.503031	0.414311	2.417128	1.194423	4.190331
-0.368828	3.518993	2.928202	1.742318	1.88982	4.724032	2.266515	7.154151	2.381996	3.795709	5.130252	6.603841	0.900915	2.903524	1.486766	4.792253
-0.4365	3.622457	2.980213	1.684561	2.031321	4.779958	2.4922	7.274992	2.797182	4.249857	5.586571	6.879211	0.801561	2.674007	1.293045	4.668023
-0.521938	3.675513	2.714324	1.759168	2.425193	4.932596	3.119905	7.766769	2.987728	4.693275	5.202781	6.732255	1.194449	2.805829	1.439347	4.971021
-0.63845	3.706219	2.54609	1.763842	2.843835	5.083393	3.69062	8.262322	3.586129	5.726563	5.925375	7.300777	1.169625	2.667019	1.353512	4.835556
-0.909608	3.351776	2.041334	1.65458	3.099126	5.222612	4.093532	8.729855	3.692352	6.144991	5.702638	7.253002	1.390485	2.796081	1.502983	5.220628
-0.759885	3.86378	2.3307	2.159075	3.630074	5.386984	4.782715	9.303475	4.123943	6.885134	5.568176	7.359812	0.924717	2.217534	1.075255	4.693432
-0.976564	3.618558	1.877731	2.142061	4.15669	5.525636	5.45707	9.888749	4.587685	7.696585	5.962764	7.813911	1.561033	2.686318	1.470756	5.400388
-0.931892	3.794515	1.955577	2.305692	4.103735	5.412505	5.562603	10.033586	4.606354	7.949993	5.98439	7.847739	1.055611	2.175885	1.081198	4.844123
-0.980745	3.790945	1.771115	2.337206	4.313413	5.595142	5.854256	10.371244	4.63002	8.283416	5.952331	7.960853	0.863139	2.163644	0.943041	4.78222
-1.012768	3.769783	1.63819	2.330566	4.291356	5.625085	5.89537	10.477816	4.444198	8.180673	5.70658	7.842717	0.976836	2.258024	0.977825	4.729635
-1.224764	3.402212	1.323954	2.235412	4.334327	5.774315	5.942882	10.647901	4.406579	8.352145	5.780805	7.933406	0.808892	2.129684	0.83977	4.399981
-1.213258	3.351584	1.375763	2.372803	4.570413	6.066113	6.232706	11.013756	4.206061	8.304889	5.696847	7.951372	0.458311	1.987073	0.635213	4.132855
-1.17539	3.375521	1.405758	2.499154	3.838424	5.671056	5.574266	10.505479	4.058753	8.263457	5.830437	8.108472	1.028498	2.518765	1.069925	4.599182
-1.129321	3.417762	1.559061	2.508031	3.478855	5.620453	5.162521	10.272312	3.63616	7.76956	5.475469	7.910971	0.30172	1.999367	0.566742	3.830628
-1.299157	2.877877	1.142857	2.252014	3.55706	5.903103	5.164407	10.401068	3.287664	7.365917	5.108526	7.639118	0.698387	2.471094	0.883419	4.223751
