fnirSoft:	Exported Text File
Version:	4.2
ExportDate:	12/18/2023 12:16:54 PM
VariableInfo
Name:	oxygraph33.hbt.Block1
Size:	2335 x 16
Type:	Numeric
Content:	Hemoglobin
Date:	12/18/2023 12:16:45 PM
Notes:	Total-hemoglobin concentration changes data saved by Oxygraph from file C:\Users\Anette Johansson\Documents\COBI Studio Data\LRV patienter\0034p_group1_R\NHPM_0034p.oxy
Labels:	HBT	DATA
VariableData
Hemoglobin	Hemoglobin	Hemoglobin	Hemoglobin	Hemoglobin	Hemoglobin	Hemoglobin	Hemoglobin	Hemoglobin	Hemoglobin	Hemoglobin	Hemoglobin	Hemoglobin	Hemoglobin	Hemoglobin	Hemoglobin
Optode1	Optode2	Optode3	Optode4	Optode5	Optode6	Optode7	Optode8	Optode9	Optode10	Optode11	Optode12	Optode13	Optode14	Optode15	Optode16
0.066568	0.074321	0.043716	0.136933	-0.017364	-0.082908	-0.065255	-0.145262	0.098357	-0.14206	0.00251100000000004	-0.102418	-0.373374	-0.296927	-0.0775	0.135732
-0.024852	-0.011435	-0.050967	0.065294	-0.061317	-0.103076	-0.140936	-0.14453	-0.068898	-0.203712	-0.122327	-0.232151	-0.024735	0.089093	0.310974	0.410241
0.061858	0.040677	-0.013806	0.083157	-0.173485	-0.226176	-0.251666	-0.200519	-0.104382	-0.191313	-0.076832	-0.213424	-0.167441	-0.09516	0.166923	0.325182
0.051015	-0.00887099999999996	-0.055787	0.013045	-0.309527	-0.40781	-0.431706	-0.318231	-0.092544	-0.22894	-0.045007	-0.177406	-0.441811	-0.321465	-0.061038	0.128763
-0.047902	-0.11994	-0.132437	-0.090709	-0.241423	-0.365961	-0.27837	-0.372466	-0.080551	-0.278168	-0.028875	-0.212906	-0.32293	-0.209035	0.020348	0.193098
0.01949	-0.070522	-0.013806	-0.020442	-0.287511	-0.369104	-0.372318	-0.385029	-0.071858	-0.265971	-0.095922	-0.270549	-0.186837	-0.096237	0.149177	0.241902
-0.043779	-0.177877	-0.065815	-0.090156	-0.253406	-0.345274	-0.377762	-0.3895	-0.018488	-0.166629	0.09414	-0.101447	-0.166146	-0.117993	0.123791	0.181376
-0.027684	-0.241622	-0.032996	-0.12227	-0.211138	-0.261277	-0.311761	-0.349122	-0.325023	-0.29139	-0.347928	-0.479639	-0.105578	-0.072696	0.166923	0.182441
0.055193	-0.379829	0.025836	-0.193898	-0.245535	-0.282999	-0.323357	-0.368542	-0.351256	-0.277521	-0.291554	-0.493458	-0.128731	-0.05111	0.160091	0.114046
-0.00381700000000001	-0.536058	-0.010006	-0.32753	-0.308812	-0.343729	-0.385196	-0.496804	-0.416382	-0.315228	-0.377448	-0.570008	-0.202455	-0.138396	0.204936	0.043788
-0.250967	-0.7641	-0.233573	-0.518728	-0.450417	-0.562145	-0.571345	-0.685476	-0.41336	-0.353226	-0.399494	-0.610418	-0.390344	-0.343216	0.052557	-0.104473
-0.270955	-0.78958	-0.197858	-0.532722	-0.560579	-0.647334	-0.66118	-0.815794	-0.42237	-0.365156	-0.320349	-0.571017	-0.159216	-0.116627	0.301394	0.042594
-0.334677	-0.950538	-0.282146	-0.652812	-0.513411	-0.563132	-0.571345	-0.848478	-0.603562	-0.47653	-0.543333	-0.738507	-0.23378	-0.164082	0.242007	0.017791
-0.241235	-0.956635	-0.215837	-0.699852	-0.44148	-0.46312	-0.478458	-0.814217	-0.565185	-0.402938	-0.538485	-0.666696	-0.237021	-0.139548	0.292074	0.024802
-0.166533	-0.965974	-0.211213	-0.704745	-0.404476	-0.400628	-0.386402	-0.749505	-0.398822	-0.278344	-0.332283	-0.401753	-0.196385	-0.095529	0.302417	-0.00945
-0.225497	-1.027639	-0.236252	-0.700595	-0.432365	-0.404353	-0.433902	-0.743898	-0.275528	-0.166629	-0.308356	-0.327536	-0.163465	-0.0269	0.354819	-0.022789
-0.321057	-1.109614	-0.33408	-0.738345	-0.52777	-0.461156	-0.552798	-0.776675	-0.395719	-0.216637	-0.397433	-0.366501	-0.32293	-0.209142	0.136534	-0.203978
-0.175058	-0.969769	-0.197858	-0.634869	-0.509682	-0.36367	-0.53282	-0.788656	-0.346062	-0.191143	-0.246475	-0.270549	-0.20582	-0.141484	0.233805	-0.220314
-0.118965	-1.005518	-0.185891	-0.63545	-0.464795	-0.359867	-0.466752	-0.803	-0.387183	-0.278344	-0.310627	-0.327536	-0.214632	-0.118575	0.250462	-0.279355
0.047216	-0.919491	-0.063284	-0.547549	-0.400862	-0.261277	-0.366499	-0.787872	-0.243063	-0.253733	-0.169141	-0.158572	-0.105578	-0.027701	0.345726	-0.309131
0.012452	-1.022007	-0.173862	-0.533852	-0.317917	-0.178477	-0.249772	-0.739894	-0.254913	-0.352641	-0.281971	-0.308824	0.00139999999999998	0.0866	0.456571	-0.259785
-0.054784	-1.02623	-0.192272	-0.480254	-0.306152	-0.078336	-0.218121	-0.723935	-0.18122	-0.340111	-0.215487	-0.289262	0.081213	0.133364	0.533736	-0.239759
-0.086557	-1.039368	-0.205976	-0.448847	-0.346805	-0.157462	-0.330444	-0.731106	-0.222485	-0.365156	-0.205725	-0.270973	0.024767	0.043462	0.456082	-0.31763
0.092886	-0.843036	-0.045062	-0.25964	-0.265329	-0.059136	-0.223875	-0.643039	-0.21591	-0.316106	-0.212242	-0.27266	-0.255483	-0.252777	0.157922	-0.511544
0.18492	-0.785844	0.008764	-0.192038	-0.246186	-0.094192	-0.188354	-0.638089	-0.157153	-0.29114	-0.150469	-0.197035	-0.098527	-0.093032	0.320735	-0.397775
0.206314	-0.732418	0.028897	-0.15693	-0.225633	-0.056331	-0.150138	-0.632615	0.115139	-0.141341	0.15668	0.032117	-0.169943	-0.163526	0.250462	-0.419703
-0.018319	-0.945422	-0.16949	-0.29604	-0.202811	-0.033023	-0.094712	-0.594031	0.121679	-0.179171	0.068811	-0.045043	0.10065	0.176272	0.545194	-0.137438
0.087884	-0.823711	-0.065243	-0.209091	-0.150364	0.024025	-0.025474	-0.533019	0.112217	-0.178906	0.079645	-0.063049	0.010634	0.062832	0.443079	-0.136433
0.116459	-0.76523	-0.043475	-0.158701	-0.100088	0.082042	0.027138	-0.4459	0.168798	-0.116644	0.125393	-0.025302	-0.00518	0.062553	0.414872	-0.090979
0.332541	-0.564355	0.11023	-0.020802	0.053906	0.205097	0.239844	-0.344983	0.354201	-0.00411500000000001	0.321325	0.145824	-0.031666	0.062685	0.421969	-0.050102
0.313441	-0.492061	0.142575	0.031138	0.041875	0.124034	0.196058	-0.344983	0.327774	-0.042061	0.158236	-0.026294	-0.130939	-0.0737869999999999	0.292366	-0.141971
0.260849	-0.530433	0.085604	0.031899	-0.041651	0.0611	0.146746	-0.373217	0.510229	0.00866900000000001	0.439743	0.146919	-0.01414	0.0168210000000001	0.413853	-0.063438
0.239494	-0.547974	0.085604	0.049093	-0.246416	-0.184233	-0.084199	-0.501429	0.468236	-0.029056	0.51052	0.146142	-0.152354	-0.14096	0.276917	-0.176113
0.311233	-0.553756	0.128763	0.033331	-0.024465	0.020675	0.196058	-0.399927	0.387454	-0.091873	0.344047	-0.026115	-0.191279	-0.209142	0.233805	-0.251256
0.475434	-0.383312	0.26972	0.170143	-0.00983300000000001	-0.000228999999999979	0.209497	-0.418475	0.55879	-0.041794	0.57724	0.183611	-0.106702	-0.118558	0.319907	-0.175382
0.298907	-0.547974	0.080447	0.048358	0.014442	-0.00150400000000001	0.198472	-0.419954	0.547947	-0.104616	0.468379	0.049565	-0.26994	-0.321342	0.112943	-0.317133
0.263236	-0.495272	0.11796	0.101138	0.115175	0.10302	0.321881	-0.353893	0.696557	-0.017101	0.68151	0.202406	-0.030732	-0.050964	0.386423	-0.096132
0.282243	-0.477653	0.135476	0.11837	0.169792	0.124866	0.358361	-0.315938	0.501422	-0.092152	0.429677	-0.0641820000000001	-0.008766	-0.028238	0.425995	-0.060875
0.211566	-0.433577	0.087891	0.082102	0.02912	0.080098	0.285929	-0.12802	0.392286	0.095753	0.462827	-0.026251	-0.051303	-0.050791	0.406425	-0.013339
0.161207	-0.383312	0.127668	0.06559	0.071167	0.062594	0.390721	-0.041996	0.353496	0.183768	0.414885	-0.045303	0.016149	0.084874	0.516102	0.12628
0.114284	-0.398572	0.072975	0.064817	0.159268	0.122536	0.505749	-0.00673599999999999	0.410439	0.120869	0.383563	-0.0641820000000001	-0.073636	-0.00586399999999998	0.409933	0.093452
0.152311	-0.322218	0.147652	0.168856	0.053906	-0.020415	0.360128	-0.052483	0.514231	0.133486	0.552011	0.087694	0.0435340000000001	0.130585	0.484856	0.187601
0.215919	-0.253187	0.217251	0.238828	0.18871	0.142162	0.500089	0.020308	0.483474	0.058353	0.469944	-0.00696200000000001	0.121875	0.221303	0.579175	0.25335
0.418038	-0.143713	0.344639	0.308777	0.317002	0.266787	0.632689	0.039075	0.652469	0.083389	0.575082	0.088087	0.171385	0.267148	0.634825	0.271476
0.093157	-0.471018	0.053243	0.0472	0.319626	0.205857	0.638458	-0.024748	0.743668	0.058184	0.693302	0.144937	0.152292	0.266911	0.622609	0.237632
0.232769	-0.324755	0.165013	0.186205	0.339723	0.226947	0.644298	-0.069717	0.895652	0.045663	0.879846	0.240573	0.267353	0.382054	0.713895	0.283411
0.263236	-0.238769	0.254765	0.291685	0.255379	0.082042	0.486538	-0.163204	0.911355	-0.00451099999999999	0.84594	0.164021	0.13011	0.222339	0.560247	0.123437
0.41346	-0.124862	0.389706	0.395848	0.297077	0.121869	0.538591	-0.145984	1.029868	0.03308	1.050331	0.336409	-0.152354	-0.14096	0.316172	-0.129435
0.509358	-0.049307	0.465016	0.465893	0.470249	0.245735	0.709952	-0.090641	0.950807	-0.029567	0.843919	0.125815	0.134569	0.198559	0.575262	0.078557
0.595164	0.00509599999999999	0.517717	0.536262	0.432936	0.223509	0.718136	-0.073354	1.075001	0.020467	0.957815	0.183556	-0.107593	-0.0958960000000001	0.339543	-0.097585
0.364557	-0.21045	0.312794	0.377922	0.388786	0.221748	0.652477	-0.076059	0.901203	-0.06714	0.722563	-0.026061	0.046468	0.084795	0.480743	0.000495999999999996
0.426195	-0.137533	0.377697	0.447988	0.47754	0.305146	0.707239	-0.028298	0.922108	-0.004584	0.85112	0.049749	0.126261	0.176272	0.599703	0.099393
0.545733	-0.065748	0.475315	0.518228	0.304404	0.079559	0.527538	-0.083052	0.937869	-0.004354	0.858771	0.012221	0.136562	0.175766	0.563449	0.095798
0.640311	0.106743	0.546469	0.571001	0.339551	0.0779449999999999	0.545003	-0.104397	1.103732	0.04556	0.973494	0.145021	-0.033447	0.017158	0.421969	-0.00255500000000003
0.537578	0.020668	0.487564	0.553987	0.405996	0.160494	0.63304	-0.10375	1.084196	-0.00433799999999995	0.915726	0.108208	-0.008766	0.062339	0.425995	0.002221
0.501172	0.033378	0.466157	0.571001	0.351315	0.099869	0.541437	-0.148079	0.985042	-0.079649	0.782366	-0.045542	0.009387	0.108349	0.482136	0.052683
0.559126	0.112161	0.5379	0.624568	0.500138	0.283468	0.735571	-0.06704	1.06677	-0.029567	0.864959	0.049752	-0.049797	0.062997	0.414604	-0.00323399999999996
0.441434	0.0305000000000001	0.435865	0.553387	0.58473	0.328587	0.86277	-0.071206	1.165532	-0.016978	0.888959	0.0883969999999999	-0.064621	0.017706	0.458248	-0.010472
0.51154	0.209297	0.497649	0.677056	0.423233	0.160494	0.652477	-0.204664	1.198997	-0.054603	0.943652	0.068904	-0.016081	0.06226	0.445433	-0.033054
0.428279	0.15708	0.430012	0.641483	0.366154	0.141028	0.580133	-0.267449	1.156705	-0.129593	0.922525	0.030544	-0.104828	-0.028436	0.366787	-0.111691
0.444384	0.148065	0.447617	0.660527	0.432936	0.182241	0.624239	-0.257807	1.061193	-0.154312	0.864303	-0.00526399999999994	-0.063359	-0.004825	0.462599	-0.088996
0.539771	0.217105	0.468394	0.712049	0.334054	0.0790740000000001	0.555452	-0.277084	1.151702	-0.104642	0.959656	0.030666	-0.125538	-0.0270059999999999	0.391279	-0.114509
0.537578	0.205966	0.475069	0.695308	0.636606	0.409006	0.948815	-0.110043	1.228577	-0.079658	1.023434	0.106818	0.108256	0.244092	0.650409	0.096646
0.305049	0.010119	0.252606	0.535788	0.393536	0.142811	0.646295	-0.237067	1.165532	-0.142033	0.827246	-0.063978	-0.076524	0.0396880000000001	0.425746	-0.017453
0.356113	0.057437	0.317199	0.589515	0.32414	0.10039	0.590954	-0.248157	1.284535	-0.029614	1.143891	0.183556	-0.219267	-0.164041	0.296385	-0.125613
0.364557	0.0495380000000001	0.267638	0.553361	0.277812	0.036932	0.501086	-0.296981	1.1434	-0.116972	0.992669	0.011787	-0.345877	-0.275522	0.215991	-0.183804
0.441919	0.09226	0.334766	0.572319	0.294547	-0.021096	0.513755	-0.338995	1.114563	-0.167027	0.946548	-0.0455140000000001	-0.361545	-0.275868	0.16855	-0.200252
0.228554	-0.101013	0.142942	0.413036	0.245851	-0.0649580000000001	0.457235	-0.397341	0.989026	-0.278973	0.700792	-0.234183	-0.351856	-0.253943	0.198949	-0.186717
0.358422	0.057437	0.252204	0.518987	0.290425	-0.00402900000000006	0.495997	-0.379469	0.97998	-0.316278	0.636935	-0.291596	-0.458369	-0.388795	0.02735	-0.283024
0.330378	0.063212	0.259728	0.536084	0.270123	-0.019679	0.505749	-0.391027	1.051628	-0.266603	0.813991	-0.121089	-0.450422	-0.365661	0.047018	-0.271368
0.31796	0.095309	0.267169	0.536738	0.215682	0.018736	0.527538	-0.312885	0.861718	0.007997	0.748396	-0.139721	-0.500555	-0.433418	0.012038	-0.234921
-0.215661	0.00880000000000003	-0.070655	0.238456	-0.192875	-0.226176	0.206861	-0.001222	0.366623	0.259399	0.463572	-0.328969	-0.66401	-0.589814	-0.135338	-0.188493
-1.049412	-0.368726	-0.612803	-0.296744	-0.512259	-0.383595	0.038445	0.309801	-0.345425	0.310122	-0.19387	-0.889772	-0.705919	-0.634001	-0.150548	-0.044427
-1.478871	-0.441386	-0.889313	-0.553275	-0.663785	-0.342876	-0.042922	0.610145	-0.873445	0.322795	-0.626193	-1.239827	-0.816096	-0.811711	-0.335879	-0.12724
-1.581342	-0.501323	-0.873625	-0.635994	-0.795884	-0.527512	-0.2328	0.401575	-0.902617	0.183782	-0.513977	-1.092016	-0.610374	-0.545116	-0.112191	-0.064226
-1.313837	-0.513879	-0.75385	-0.553275	-0.683187	-0.505431	-0.110911	0.16172	-0.600557	0.058259	-0.17971	-0.755825	-0.734521	-0.678305	-0.189019	-0.264897
-1.158721	-0.571428	-0.697447	-0.517926	-0.50443	-0.400628	0.037026	-0.020911	-0.509701	-0.129606	-0.19387	-0.722366	-0.840935	-0.767544	-0.285961	-0.393548
-1.145468	-0.694398	-0.739319	-0.502414	-0.586822	-0.564067	-0.161754	-0.243772	-0.31376	-0.191701	0.052966	-0.514847	-0.745289	-0.610973	-0.114469	-0.356271
-1.228696	-0.880632	-0.818581	-0.620114	-0.629927	-0.603625	-0.24265	-0.425836	-0.316649	-0.328382	0.06516	-0.515285	-0.900034	-0.745381	-0.266718	-0.518242
-1.215729	-1.021042	-0.874847	-0.655362	-0.366663	-0.341009	0.012242	-0.461347	-0.32228	-0.427638	0.037671	-0.516581	-0.919778	-0.722606	-0.23942	-0.552833
-1.06265	-0.951442	-0.748783	-0.552573	-0.49527	-0.545126	-0.148627	-0.645363	-0.245898	-0.464639	0.099984	-0.422415	-1.028073	-0.811711	-0.274029	-0.641603
-0.923542	-0.962708	-0.70053	-0.519881	-0.332365	-0.379723	0.061862	-0.631799	-0.103743	-0.477149	0.10643	-0.366682	-1.05533	-0.722982	-0.254834	-0.655956
-0.916444	-0.91284	-0.676128	-0.416586	-0.187466	-0.241301	0.207516	-0.625385	0.049892	-0.475923	0.279701	-0.211075	-0.786763	-0.432337	0.033282	-0.479904
-0.944193	-0.925836	-0.715107	-0.36604	-0.204627	-0.160364	0.226538	-0.643824	-0.01557	-0.513393	0.171202	-0.251365	-0.716757	-0.298526	0.12982	-0.403346
-0.838121	-0.822746	-0.644482	-0.296411	-0.389018	-0.383595	-0.092029	-0.77107	-0.00339499999999998	-0.524982	0.204788	-0.229024	-1.001727	-0.61209	-0.181852	-0.626322
-0.782966	-0.838082	-0.681103	-0.279961	-0.37455	-0.303794	-0.05422	-0.779864	-0.059721	-0.561976	0.161441	-0.247661	-1.012808	-0.589612	-0.154614	-0.639754
-0.648975	-0.748882	-0.571553	-0.176486	-0.37964	-0.304559	-0.040827	-0.834901	-0.027346	-0.574466	0.156424	-0.267734	-0.951549	-0.544766	-0.0845	-0.638782
-0.806178	-0.964925	-0.741792	-0.296744	-0.377112	-0.303794	-0.01635	-0.851686	0.055728	-0.624295	0.067434	-0.30746	-0.90026	-0.498457	-0.04366	-0.587799
-0.736059	-0.934816	-0.697447	-0.19155	-0.378398	-0.279256	-0.00662400000000002	-0.847649	0.059836	-0.649543	0.062699	-0.291211	-0.724623	-0.319197	0.143083	-0.447121
-0.607055	-0.806222	-0.593073	-0.054341	-0.524087	-0.443266	-0.205086	-0.912208	0.139621	-0.600123	0.189479	-0.215317	-0.727272	-0.275112	0.138598	-0.401216
-0.662431	-0.951442	-0.68555	-0.157892	-0.381104	-0.299163	-0.087862	-0.83889	0.136927	-0.612522	0.14366	-0.234378	-0.878201	-0.410715	0.043903	-0.483006
-0.516882	-0.894441	-0.649488	-0.107312	-0.378398	-0.299163	-0.06313	-0.819691	0.073586	-0.685623	0.021758	-0.345795	-0.877005	-0.36583	0.063228	-0.451371
-0.393041	-0.772013	-0.558676	-0.018613	-0.343012	-0.261277	-0.024024	-0.813412	0.118972	-0.686151	0.039758	-0.347276	-0.842259	-0.386977	0.099999	-0.416527
-0.456311	-0.842126	-0.610234	-0.054341	-0.296945	-0.200403	0.044199	-0.776675	0.152267	-0.686288	0.017051	-0.366682	-0.937358	-0.500291	-0.041762	-0.514609
-0.355842	-0.6622	-0.49771	0.084835	-0.480847	-0.361876	-0.180558	-0.821364	0.240539	-0.624092	0.185732	-0.21432	-0.775005	-0.320882	0.12982	-0.389009
-0.267386	-0.565489	-0.434813	0.169807	-0.442557	-0.302975	-0.129777	-0.751125	0.145159	-0.63653	0.062918	-0.308824	-0.757032	-0.275522	0.11048	-0.356271
-0.182801	-0.533431	-0.395349	0.205887	-0.296945	-0.15945	0.000605999999999995	-0.641433	0.198985	-0.575287	0.120951	-0.271684	-0.590938	-0.071808	0.354819	-0.211392
-0.154789	-0.492061	-0.388285	0.222033	-0.331095	-0.221307	0.019518	-0.62298	0.339095	-0.476145	0.272344	-0.156157	-0.792772	-0.363044	0.11374	-0.382483
-0.091406	-0.384391	-0.321955	0.309706	-0.348133	-0.181269	0.038445	-0.623793	0.330528	-0.525857	0.212606	-0.23382	-0.772536	-0.320557	0.11048	-0.371623
-0.248658	-0.545718	-0.451949	0.239355	-0.365146	-0.202136	-0.010765	-0.65106	0.300207	-0.53772	0.253065	-0.213424	-0.902886	-0.499384	-0.048098	-0.479904
-0.147774	-0.441386	-0.33408	0.327845	-0.333629	-0.14116	-0.010765	-0.642241	0.396047	-0.488426	0.393573	-0.099836	-0.716757	-0.321141	0.149177	-0.357289
0.01949	-0.398572	-0.253256	0.396297	-0.221764	-0.038158	0.163726	-0.559545	0.240539	-0.562661	0.161282	-0.327113	-0.826734	-0.476295	0.022994	-0.415403
0.220488	-0.237735	-0.090467	0.537372	-0.09306	0.10228	0.285929	-0.499167	0.423605	-0.501444	0.256336	-0.177406	-0.709038	-0.341985	0.147631	-0.290522
0.07632	-0.325963	-0.176897	0.501262	-0.105186	0.082798	0.291479	-0.498391	0.397429	-0.526417	0.124994	-0.31018	-0.757032	-0.387431	0.071849	-0.324504
0.277552	-0.069391	0.030769	0.730739	-0.143818	0.043256	0.220791	-0.495994	0.589645	-0.41496	0.356608	-0.120855	-0.62931	-0.272816	0.224195	-0.24097
0.201498	-0.163643	-0.011258	0.678411	-0.141191	0.043256	0.220791	-0.487137	0.55879	-0.426955	0.367387	-0.176756	-0.574661	-0.186613	0.257362	-0.172134
0.327649	-0.056739	0.090901	0.750219	-0.129616	0.059267	0.245203	-0.47478	0.715627	-0.340111	0.52751	-0.024527	-0.592314	-0.229989	0.287511	-0.198191
0.360786	-0.016059	0.127668	0.748962	0.073802	0.269239	0.505749	-0.342658	0.686167	-0.353109	0.373359	-0.139721	-0.547966	-0.141374	0.311918	-0.126443
0.325146	0.018632	0.103093	0.767305	0.00480899999999998	0.144273	0.43124	-0.335309	0.935113	-0.191591	0.672296	0.126834	-0.556936	-0.163934	0.237874	-0.17124
0.298907	0.07858	0.092818	0.801423	0.024258	0.182241	0.409623	-0.2743	0.970477	-0.129583	0.655986	0.12647	-0.497139	-0.118768	0.265656	-0.139351
0.499267	0.339336	0.299658	1.032645	0.065999	0.184805	0.43124	-0.216186	0.959039	-0.104639	0.67966	0.087719	-0.443928	-0.073628	0.268856	-0.111691
0.499267	0.338201	0.332183	1.050691	0.147149	0.288677	0.544221	-0.187807	0.943048	-0.104616	0.715033	0.106724	-0.455122	-0.073768	0.319988	-0.109233
0.621521	0.411361	0.429971	1.104604	0.205998	0.325599	0.588988	-0.184004	1.106408	-0.041903	0.869217	0.221941	-0.28939	0.08498	0.516957	0.035186
0.616712	0.394409	0.392215	1.103939	0.341451	0.43135	0.762482	-0.143786	1.207524	-0.00459500000000002	0.896013	0.279053	-0.201341	0.198599	0.556179	0.097529
0.578306	0.356194	0.377192	1.103939	0.294547	0.389786	0.673859	-0.171427	1.342531	0.045968	1.070453	0.376415	0.088668	0.519705	0.886445	0.355507
0.616712	0.375294	0.422289	1.157308	0.250229	0.348969	0.640678	-0.161714	1.254729	0.020566	0.913849	0.240817	-0.093673	0.24463	0.667277	0.210603
0.889513	0.623756	0.638727	1.354339	0.304404	0.409586	0.687817	-0.108618	1.282164	0.070674	0.860676	0.202752	-0.258033	0.062553	0.560447	0.114046
0.932808	0.658689	0.706833	1.372469	0.410728	0.491585	0.809924	-0.044932	1.465182	0.183775	1.125299	0.394061	-0.193727	0.086143	0.593211	0.164744
0.896298	0.599813	0.631078	1.301125	0.480576	0.510828	0.85284	-0.019276	1.535427	0.234194	1.115563	0.37515	-0.101794	0.198559	0.685878	0.237632
0.911141	0.658689	0.656345	1.318496	0.460203	0.471638	0.854316	-0.016473	1.606376	0.259674	1.118497	0.357264	0.047505	0.335507	0.816811	0.31783
0.913386	0.675701	0.676502	1.336626	0.430458	0.43135	0.820795	-0.015744	1.871251	0.461912	1.467583	0.625645	-0.000473999999999974	0.290184	0.745293	0.268348
0.984799	0.739845	0.740464	1.371966	0.472676	0.409006	0.868485	0.046679	1.792934	0.474589	1.247726	0.432546	-0.051303	0.198744	0.686946	0.225315
1.245794	1.062901	0.996989	1.588699	0.611871	0.512674	1.016244	0.148302	1.93071	0.57633	1.308151	0.509666	-0.171149	0.039721	0.540845	0.146198
1.123855	1.044716	0.963955	1.570569	0.706574	0.616657	1.125242	0.204813	1.98552	0.627369	1.302459	0.471347	-0.1943	0.017158	0.492498	0.092736
1.134455	1.018753	0.942837	1.552913	0.697288	0.594078	1.12911	0.211164	1.978802	0.640328	1.278457	0.414589	-0.17347	0.016806	0.508547	0.095798
1.139677	0.993393	0.922108	1.534561	0.721587	0.616092	1.164632	0.232048	2.203178	0.780737	1.5875	0.645275	-0.00990000000000002	0.198519	0.717873	0.239239
1.326661	1.179213	1.12026	1.661266	0.799149	0.63671	1.179043	0.278199	2.200895	0.819261	1.541717	0.625853	-0.053658	0.175766	0.698136	0.223552
1.3426	1.144326	1.113721	1.679679	0.992238	0.824967	1.42358	0.381196	2.335937	0.870853	1.580289	0.684984	0.019318	0.266911	0.773102	0.285574
1.326661	1.158165	1.137959	1.752118	0.772646	0.593717	1.143746	0.303522	2.394054	0.922307	1.62976	0.704168	0.135106	0.405605	0.910723	0.419333
1.382227	1.241331	1.226521	1.825257	0.859456	0.678003	1.263401	0.370694	2.372583	0.948141	1.576891	0.64671	0.0298119999999999	0.289974	0.784987	0.331415
1.495103	1.328438	1.319732	1.861517	0.913212	0.760108	1.332447	0.396143	2.351151	0.974188	1.493746	0.589056	0.064303	0.335451	0.880443	0.414001
1.429504	1.022455	1.204354	1.426087	0.962005	0.63786	1.414794	0.61708	2.170997	1.051559	1.397204	0.551026	0.026162	0.313779	0.83339	0.36178
1.278365	0.693886	1.088212	1.139261	0.669502	0.367013	1.09489	0.577532	1.876833	0.93522	1.177601	0.338772	0.075798	0.289974	0.912213	0.36438
0.947876	0.32385	0.839056	0.90698	0.59183	0.308223	1.06336	0.469921	1.481443	0.703868	0.92052	0.087655	0.037353	0.221352	0.868943	0.255779
0.831298	0.245092	0.798068	0.853951	0.304404	0.0611	0.756963	0.234193	1.244814	0.550852	0.742921	-0.0263949999999999	-0.026693	0.107533	0.79699	0.190542
0.865815	0.230814	0.773292	0.818234	0.336485	0.10228	0.820795	0.178334	1.067864	0.436549	0.540501	-0.177904	-0.224393	-0.0505019999999999	0.591183	0.0287230000000001
0.627048	0.025248	0.535859	0.694422	0.176424	-0.041283	0.712653	0.075915	1.07983	0.411557	0.465881	-0.176447	-0.153214	0.0186110000000002	0.643227	0.0907880000000001
0.481897	-0.11723	0.353604	0.588568	0.0569850000000001	-0.084875	0.559301	-0.00188700000000003	1.151702	0.449195	0.733784	0.049565	-0.278384	-0.118955	0.547836	0.016087
0.571411	0.02175	0.447501	0.712434	-0.046227	-0.124888	0.418539	-0.047014	0.956623	0.33521	0.542337	-0.121246	-0.249386	-0.051168	0.630689	0.063727
0.445407	-0.121233	0.312794	0.623884	-0.0190140000000001	-0.064226	0.481713	-0.001222	0.86682	0.284657	0.442764	-0.197162	-0.330188	-0.163526	0.593211	0.020595
0.547828	-0.050495	0.349894	0.712434	0.046698	0.0384720000000001	0.588988	0.045305	0.917267	0.284682	0.462827	-0.139908	-0.338496	-0.118955	0.567506	0.031688
0.567088	0.007523	0.345228	0.765191	-0.111757	-0.105115	0.394111	-0.00188700000000003	1.093548	0.360503	0.700166	0.06885	-0.373502	-0.185961	0.468942	-0.00323399999999996
0.324212	-0.267049	0.088932	0.588567	-0.00204899999999997	0.038006	0.481713	0.063394	0.859504	0.221612	0.38533	-0.196693	-0.397415	-0.209142	0.425995	-0.032288
0.309137	-0.307188	0.031321	0.553493	-0.039278	-0.000894000000000006	0.483513	0.066162	0.982486	0.284645	0.613155	-0.026545	-0.601132	-0.411084	0.203115	-0.156637
0.462637	-0.11994	0.198444	0.676693	0.080799	0.10039	0.574824	0.101632	0.861892	0.208995	0.420326	-0.234626	-0.361545	-0.186227	0.438712	-0.013339
0.565008	0.010119	0.263085	0.782789	-0.016784	-0.0232829999999999	0.525614	0.036265	0.996031	0.234194	0.571987	-0.083031	-0.351856	-0.164082	0.382728	-0.015908
0.522413	0.067182	0.245799	0.800483	-0.082334	-0.064619	0.45218	0.00714899999999996	0.998468	0.221563	0.559016	-0.10224	-0.510301	-0.366068	0.149177	-0.187621
0.64848	0.249913	0.377697	0.942559	0.053681	0.080098	0.580133	0.102327	0.891874	0.183944	0.421306	-0.195089	-0.273723	-0.118768	0.399688	-0.014228
0.460693	0.014325	0.161853	0.729744	0.053681	0.059823	0.629651	0.158771	1.030724	0.31004	0.674313	-0.00642900000000002	-0.691603	-0.567545	-0.030718	-0.300128
0.567088	0.120276	0.23299	0.782789	-0.0903189999999999	-0.104203	0.448222	0.101632	1.159285	0.398493	0.803391	0.087655	-0.457315	-0.299067	0.237874	-0.110905
0.205437	-0.0953630000000001	-0.056627	0.553387	-0.243698	-0.165724	0.341341	0.239771	0.825048	0.525596	0.483151	-0.158914	-0.698775	-0.611318	-0.028871	-0.217637
-0.001637	-0.141366	-0.122287	0.448121	-0.350436	-0.206043	0.264399	0.18458	0.410439	0.322636	0.13563	-0.479642	-0.611834	-0.477805	0.048198	-0.123854
-0.00380000000000003	-0.121233	-0.092542	0.465629	-0.12721	0.019328	0.533031	0.158771	0.407957	0.20911	0.175734	-0.441765	-0.545897	-0.366293	0.190809	-0.033054
0.307067	0.158398	0.153375	0.676693	-0.207488	-0.063277	0.414926	-0.019276	0.558602	0.171327	0.328171	-0.272329	-0.575728	-0.321342	0.206336	-0.033789
0.230635	0.026498	0.065818	0.623995	-0.205104	-0.123835	0.395666	-0.110739	0.861892	0.221742	0.601675	0.01239	-0.651681	-0.388169	0.159548	-0.05078
0.292162	0.192661	0.162615	0.747674	-0.243936	-0.141947	0.329759	-0.163932	0.896436	0.158798	0.599877	-0.00642900000000002	-0.662948	-0.366293	0.151884	-0.080562
0.080785	-0.033863	-0.036108	0.589257	-0.314325	-0.18484	0.231338	-0.230236	0.702857	0.033256	0.378456	-0.1955	-0.573842	-0.275112	0.292074	0.00606799999999999
0.220488	0.113194	0.077921	0.713166	-0.323523	-0.227461	0.17207	-0.287371	0.654931	-0.054582	0.342898	-0.234626	-0.747664	-0.411197	0.093619	-0.141971
0.2035	0.06859	0.00966300000000009	0.641407	-0.222093	-0.144556	0.357196	-0.293608	0.631763	-0.129539	0.295069	-0.309986	-0.817711	-0.478174	0.039671	-0.188493
0.120969	0.038526	-0.033655	0.624838	-0.279682	-0.207274	0.311811	-0.369224	0.585902	-0.228951	0.099913	-0.477685	-0.825364	-0.499384	0.018476	-0.231112
0.049005	-0.00614000000000003	-0.111953	0.57098	-0.289809	-0.226657	0.220775	-0.376803	0.661592	-0.166711	0.252064	-0.345946	-0.954922	-0.612054	-0.158617	-0.33183
0.199171	0.189122	0.028285	0.712881	-0.35098	-0.22843	0.17139	-0.362215	0.689153	-0.117088	0.339273	-0.253156	-0.761935	-0.411172	0.078368	-0.156637
0.154455	0.080963	-0.073023	0.65947	-0.299757	-0.205526	0.236719	-0.311487	0.631763	-0.104531	0.273342	-0.290528	-0.951549	-0.589814	-0.088642	-0.283024
0.199171	0.150063	-0.016318	0.713491	-0.314325	-0.225641	0.212191	-0.320422	0.597593	-0.117088	0.263834	-0.309986	-0.782815	-0.432704	0.095546	-0.169352
-0.00996799999999998	0.011479	-0.203404	0.606297	-0.386322	-0.247629	0.109449	-0.358944	0.67634	-0.116773	0.374253	-0.271684	-0.738841	-0.38782	0.138598	-0.137438
-0.027684	-0.001173	-0.225949	0.590944	-0.473965	-0.345274	0.00260999999999995	-0.427368	0.468236	-0.24134	0.19263	-0.459765	-0.868441	-0.500526	4.3999999999933E-05	-0.207179
-0.196857	-0.177877	-0.383201	0.466085	-0.563082	-0.385209	-0.05422	-0.408824	0.255698	-0.104573	0.120951	-0.479413	-0.955409	-0.565872	-0.04366	-0.120968
-0.955529	-0.369654	-0.756332	0.031899	-1.095863	-0.647334	-0.493307	0.14066	-0.655661	0.121069	-0.715657	-1.258749	-1.332155	-1.032434	-0.470247	-0.17462
-1.587871	-0.602688	-1.161226	-0.485152	-1.331695	-0.769324	-0.613228	0.445828	-1.072561	0.25979	-0.998751	-1.441691	-1.407981	-1.162875	-0.522127	-0.183804
-1.785541	-0.788706	-1.300007	-0.705189	-1.37682	-0.784755	-0.581227	0.374975	-1.020594	0.246866	-0.804892	-1.093155	-1.56066	-1.27348	-0.664828	-0.408098
-1.701766	-0.971425	-1.3093	-0.755125	-1.324982	-0.807605	-0.621498	0.038355	-1.097899	-0.079617	-0.885462	-1.111745	-1.37538	-1.076401	-0.46637	-0.408952
-1.581056	-1.182718	-1.319178	-0.790445	-1.235169	-0.783846	-0.527163	-0.261636	-0.898878	-0.266575	-0.668013	-0.889882	-1.530535	-1.164083	-0.519685	-0.594851
-1.23884	-1.075978	-1.134919	-0.654256	-1.150255	-0.725645	-0.45818	-0.52653	-0.731109	-0.427813	-0.511783	-0.741332	-1.426942	-0.966235	-0.350652	-0.562425
-1.156167	-1.204477	-1.156064	-0.669617	-1.086308	-0.668492	-0.380709	-0.738082	-0.620581	-0.600529	-0.542361	-0.759939	-1.415039	-0.875623	-0.258549	-0.55506
-1.023631	-1.096034	-1.050454	-0.482121	-0.955625	-0.585598	-0.240746	-0.815794	-0.365792	-0.637445	-0.364241	-0.573346	-1.282038	-0.678678	-0.14223	-0.436039
-0.948037	-1.0421	-1.019112	-0.397017	-1.117092	-0.728556	-0.442384	-0.93591	-0.157153	-0.612522	-0.158905	-0.348027	-1.370951	-0.723117	-0.227425	-0.500244
-0.791127	-0.972193	-0.968071	-0.275415	-0.881799	-0.425075	-0.178682	-0.78943	-0.103743	-0.575581	-0.162963	-0.291568	-1.414132	-0.723189	-0.274029	-0.501158
-0.639784	-0.891239	-0.93047	-0.176164	-0.891113	-0.423392	-0.186282	-0.74233	0.052864	-0.47653	-0.001605	-0.121065	-1.373222	-0.612054	-0.177893	-0.392704
-0.286099	-0.586209	-0.69567	0.118783	-0.872311	-0.385937	-0.165313	-0.682192	0.198985	-0.365462	0.11664	0.030762	-1.382564	-0.567497	-0.169791	-0.328429
-0.419112	-0.71393	-0.828896	0.049983	-0.853196	-0.364487	-0.135389	-0.653428	0.106523	-0.451921	-0.063791	-0.121065	-1.342905	-0.522941	-0.158617	-0.31476
-0.411619	-0.663055	-0.804122	0.138008	-1.031738	-0.58639	-0.396491	-0.760712	0.228411	-0.414243	0.15154	0.032529	-1.311312	-0.522936	-0.169791	-0.282156
-0.283707	-0.513879	-0.722281	0.240882	-1.088595	-0.648653	-0.474579	-0.818077	-0.000671000000000005	-0.562452	-0.112625	-0.252593	-1.238692	-0.411084	-0.10376	-0.217637
-0.09761	-0.408585	-0.587784	0.347787	-1.043523	-0.569127	-0.404791	-0.809282	0.115139	-0.525458	-0.035984	-0.214698	-1.390471	-0.544954	-0.228183	-0.33183
-0.060138	-0.44494	-0.604995	0.330515	-0.829313	-0.38661	-0.170744	-0.736609	0.273696	-0.488993	0.070912	-0.064328	-1.196507	-0.321465	-0.02247	-0.185779
0.114319	-0.243315	-0.49771	0.487533	-0.747595	-0.307582	-0.04848	-0.666708	0.522526	-0.389817	0.292143	0.126547	-1.062238	-0.163762	0.114853	-0.105491
0.106781	-0.239762	-0.537304	0.521209	-0.673722	-0.223717	0.021584	-0.617328	0.613295	-0.365156	0.277566	0.107302	-0.98907	-0.096067	0.172874	-0.058014
0.114319	-0.170139	-0.480449	0.558227	-0.711897	-0.282144	-0.042922	-0.614968	0.665226	-0.315893	0.417394	0.221389	-0.902886	-0.005664	0.254785	0.005057
0.301264	-0.018118	-0.368576	0.697699	-0.711897	-0.322934	-0.061803	-0.596504	0.788557	-0.253428	0.600903	0.37546	-0.915744	-0.050791	0.278577	0.00606799999999999
0.520815	0.20396	-0.181715	0.856499	-0.565553	-0.162778	0.157999	-0.462132	0.657429	-0.316183	0.315335	0.145066	-0.908949	0.0168210000000001	0.296385	0.064563
0.580715	0.204941	-0.199025	0.820878	-0.579975	-0.18209	0.157999	-0.325627	0.825109	0.070976	0.569216	0.43295	-0.859066	0.039551	0.332569	0.210603
0.263236	0.203021	-0.383255	0.64426	-0.81261	-0.325956	-0.040827	-0.015003	0.418187	0.411206	0.172822	0.106724	-0.860338	-0.096237	0.23104	0.322171
-0.250967	0.132152	-0.605702	0.379515	-0.824558	-0.224412	0.089682	0.476795	-0.032336	0.512947	-0.177421	-0.216074	-0.81519	-0.095829	0.215991	0.436058
-0.089008	0.315072	-0.461632	0.450236	-0.915228	-0.345967	-0.01635	0.421284	0.062487	0.46202	0.064704	-0.04555	-0.716757	-0.028514	0.289354	0.498085
0.083098	0.279952	-0.356402	0.484674	-0.719283	-0.245133	0.190429	0.337825	0.136927	0.284654	0.127026	-0.026551	-0.847373	-0.2315	0.125526	0.337867
0.097485	0.207033	-0.3466	0.449146	-0.678494	-0.24574	0.228582	0.179817	0.288976	0.146021	0.22286	-0.00752199999999997	-0.81519	-0.185969	0.153518	0.307466
0.237199	0.263031	-0.253256	0.589812	-0.536682	-0.163475	0.321881	0.069114	0.400076	-0.00455899999999999	0.204073	-0.083475	-0.751665	-0.162423	0.210118	0.247016
0.118688	0.114267	-0.329438	0.537035	-0.56064	-0.185393	0.217588	-0.107888	0.268253	-0.19186	0.00656299999999999	-0.310403	-0.560999	0.018551	0.398257	0.310611
0.078525	0.00394600000000001	-0.363737	0.48404	-0.459497	-0.102432	0.321881	-0.151222	0.571449	-0.141954	0.388028	0.011484	-0.54945	0.062832	0.471496	0.292825
0.196898	0.096411	-0.20649	0.62515	-0.285181	0.10039	0.513755	-0.089183	0.626082	-0.179357	0.356608	-0.026512	-0.645272	-0.00591200000000003	0.406425	0.207877
0.358422	0.170117	-0.130031	0.713491	-0.153989	0.246459	0.677026	0.005279	0.856244	-0.054472	0.621472	0.221457	-0.529335	0.130402	0.543762	0.302091
0.456286	0.302298	-0.070655	0.854602	-0.253653	0.121258	0.533031	0.048828	1.401124	0.259631	1.237044	0.800638	-0.62194	0.0401990000000001	0.449255	0.251899
0.483878	0.366254	-0.0500969999999999	0.942559	-0.21481	0.246459	0.58842	0.170767	1.334403	0.27208	0.990532	0.606285	-0.604473	0.0396880000000001	0.433489	0.284819
0.672169	0.603236	0.100415	1.157308	-0.161262	0.388534	0.660019	0.289413	1.420317	0.385841	1.100501	0.665177	-0.467197	0.175731	0.615139	0.430587
0.826955	0.757893	0.205234	1.282319	-0.103479	0.447745	0.676174	0.396143	1.475704	0.44942	1.095563	0.645455	-0.374676	0.289922	0.706632	0.512959
1.010657	0.926261	0.367332	1.426524	0.110316	0.656459	0.932495	0.548631	1.653303	0.563685	1.172331	0.743225	-0.262777	0.381351	0.792924	0.622254
1.061099	1.049135	0.386037	1.516288	0.16066	0.738652	1.015144	0.620244	1.859797	0.691105	1.316223	0.858723	-0.146565	0.473313	0.848542	0.669297
1.127926	1.139923	0.457851	1.606945	0.351315	0.887212	1.220383	0.718949	2.023736	0.819261	1.456281	0.938182	-0.083936	0.518916	0.856507	0.719265
1.184771	1.200355	0.531289	1.661278	0.257556	0.72037	1.091382	0.672213	2.38832	1.063629	1.900185	1.270586	0.016149	0.611615	0.952114	0.781775
1.273848	1.290369	0.636304	1.716173	0.273339	0.71804	1.104222	0.678063	2.256494	1.012503	1.559901	0.978439	0.119165	0.703633	1.113448	0.852628
1.431543	1.466716	0.790886	1.843464	0.414083	0.801469	1.247888	0.705746	2.376803	1.064173	1.592232	0.978439	0.119165	0.680607	1.109026	0.835784
1.387931	1.487994	0.786278	1.843248	0.577223	0.949188	1.483199	0.80203	2.599184	1.193445	1.773314	1.15403	0.192187	0.796124	1.168851	0.916525
1.425599	1.472746	0.860638	1.916352	0.469591	0.884851	1.347338	0.930663	2.385905	1.336016	1.706122	1.133061	0.318502	0.86577	1.228364	1.009806
1.650147	1.550765	1.102589	1.971259	0.426827	0.884948	1.267743	1.093395	1.995835	1.441459	1.397204	0.999938	0.241624	0.703762	1.032122	0.944136
1.731993	1.532467	1.246363	1.806863	0.282421	0.76043	1.164632	1.048651	1.736151	1.59748	1.323282	0.957177	0.371992	0.752563	1.037451	0.957569
1.36816	1.047618	0.948603	1.317993	0.025247	0.447903	0.892062	0.875502	1.300863	1.493331	0.76737	0.550539	0.396732	0.772789	1.06793	0.978307
1.127926	0.760652	0.777992	1.06725	-0.20984	0.181289	0.624239	0.623467	0.993644	1.375486	0.490672	0.318984	0.471799	0.796179	1.043898	0.977613
0.877444	0.559253	0.592072	0.835975	-0.391782	0.017714	0.420297	0.370022	0.935113	1.387912	0.651008	0.490359	0.223932	0.54325	0.777308	0.764544
0.803396	0.44036	0.538198	0.694422	-0.55831	-0.185892	0.32424	0.174827	0.714869	1.27116	0.451722	0.356567	-0.00233699999999992	0.291679	0.497237	0.585933
0.733742	0.412562	0.44448	0.606381	-0.694171	-0.289094	0.224669	-0.01409	0.73833	1.245108	0.503724	0.433073	0.047505	0.358774	0.579175	0.604915
0.543691	0.253977	0.282681	0.483089	-0.664081	-0.247235	0.275031	-0.085073	0.670812	1.154923	0.413137	0.357681	0.070311	0.406447	0.580069	0.60189
0.326214	0.084854	0.113003	0.377989	-0.683136	-0.227782	0.269682	-0.14107	0.480772	1.03841	0.286433	0.224205	-0.01414	0.290458	0.488646	0.491033
0.294357	0.02404	0.12264	0.343565	-0.704906	-0.287004	0.272363	-0.212301	0.568778	1.025065	0.503724	0.394658	-0.284489	-0.00464700000000007	0.273211	0.297931
0.180638	-0.093847	-0.0373739999999999	0.185953	-0.774152	-0.349007	0.206861	-0.334095	0.470015	0.909274	0.342898	0.241785	-0.148614	0.130833	0.406076	0.363013
0.070021	-0.156446	-0.08789	0.186076	-0.886625	-0.489326	0.078601	-0.459787	0.522108	0.845091	0.448035	0.318599	-0.244957	0.0426139999999999	0.301857	0.312139
-0.034686	-0.29626	-0.192979	0.0990519999999999	-0.87699	-0.510171	0.07316	-0.524772	0.446789	0.729786	0.339273	0.184739	-0.184123	0.133051	0.344767	0.312637
0.127132	-0.153714	-0.062759	0.23819	-0.872311	-0.489326	0.097638	-0.561001	0.418187	0.678378	0.28788	0.145214	-0.139405	0.201345	0.427262	0.280476
0.106116	-0.22511	-0.12684	0.203338	-0.810225	-0.44886	0.223052	-0.57877	0.410439	0.61486	0.216162	0.108208	-0.056966	0.335818	0.575262	0.347886
0.053077	-0.248198	-0.149648	0.220941	-0.972038	-0.611424	0.032954	-0.708116	0.464986	0.589299	0.230869	0.089013	-0.178756	0.199428	0.445433	0.266354
-0.114307	-0.386048	-0.318264	0.08174	-0.965196	-0.570508	0.029695	-0.778893	0.304348	0.449249	0.087968	-0.083219	-0.077881	0.31272	0.599703	0.367521
-0.007965	-0.336955	-0.264981	0.133762	-1.034159	-0.709859	-0.040827	-0.867742	0.190879	0.373205	-0.00705300000000009	-0.196462	-0.234873	0.176019	0.472812	0.299859
0.00159399999999998	-0.420595	-0.337341	0.047193	-1.107681	-0.829215	-0.122039	-0.994126	0.283662	0.39857	0.00753300000000001	-0.158697	-0.420566	0.019137	0.305343	0.185195
-0.068843	-0.392023	-0.343485	0.081665	-1.102848	-0.790979	-0.143509	-1.013635	0.498805	0.474578	0.285537	0.049566	-0.309534	0.1532	0.476745	0.284098
-0.167399	-0.407952	-0.390054	0.081651	-1.053158	-0.690462	-0.027322	-0.985351	0.402774	0.423832	0.214626	0.0115970000000001	-0.521964	-0.0497810000000001	0.273211	0.0907880000000001
-0.081588	-0.377302	-0.349002	0.099244	-1.105248	-0.748343	-0.110911	-1.019057	0.390268	0.436509	0.281296	0.068596	-0.444944	0.017425	0.382613	0.139794
-0.284519	-0.627276	-0.546304	-0.0914499999999999	-1.034159	-0.669636	-0.00289499999999998	-1.021101	0.366077	0.335423	0.226392	0.012508	-0.720224	-0.299067	0.105003	-0.111691
-0.39099	-0.743155	-0.642129	-0.177388	-1.102848	-0.731022	-0.081315	-1.076296	0.414072	0.297353	0.187999	-0.026115	-0.558081	-0.14153	0.272829	-0.000316000000000038
-0.646217	-1.010568	-0.877033	-0.349405	-1.202372	-0.850005	-0.238147	-1.191902	0.354201	0.234232	0.214821	-0.026294	-0.460859	-0.00517100000000001	0.380201	0.083813
-0.523818	-0.851913	-0.732071	-0.228854	-1.223463	-0.831012	-0.291642	-1.220007	0.27095	0.196364	0.15619	-0.08351	-0.42738	0.0168210000000001	0.37463	0.078557
-0.278485	-0.631467	-0.537264	-0.039412	-1.11245	-0.750488	-0.089633	-1.164399	0.149686	0.108399	-0.025251	-0.215193	-0.421618	0.039551	0.386871	0.096646
-0.056066	-0.4173	-0.373588	0.117364	-1.211485	-0.851172	-0.167688	-1.210647	0.402774	0.221578	0.337849	0.106818	-0.343278	0.176272	0.482136	0.194017
-0.299352	-0.611427	-0.585887	-0.039517	-1.140876	-0.769324	-0.122039	-1.163049	0.263012	0.18387	0.150244	-0.083219	-0.286923	0.198599	0.493118	0.240092
-0.215661	-0.560714	-0.578871	-0.021858	-1.24251	-0.868706	-0.216369	-1.197916	0.206303	0.18387	0.175734	-0.063978	-0.614283	-0.141426	0.155955	-0.015085
-0.282559	-0.645974	-0.649057	-0.091422	-1.216554	-0.849512	-0.221911	-1.23482	-0.096268	0.020602	-0.179655	-0.384612	-0.725962	-0.275868	0.067506	-0.075472
-0.217835	-0.595462	-0.595885	-0.056503	-1.386098	-1.029397	-0.36189	-1.343193	-0.062621	0.007933	-0.11553	-0.36695	-0.738841	-0.253167	0.091157	-0.090979
-0.526027	-0.850656	-0.853198	-0.280205	-1.287337	-0.928427	-0.240746	-1.340486	-0.092544	-0.079502	-0.238921	-0.49811	-0.698775	-0.186227	0.144899	-0.044427
-0.635238	-0.87278	-0.889313	-0.296744	-1.5738	-1.226065	-0.592149	-1.518404	-0.077628	-0.104573	-0.187776	-0.423363	-0.911174	-0.411157	-0.061998	-0.222696
-0.7226	-0.973607	-1.009895	-0.38347	-1.463686	-1.067182	-0.45818	-1.481062	-0.222485	-0.19179	-0.364557	-0.573249	-0.957029	-0.477984	-0.0890479999999999	-0.255167
-0.644124	-0.93931	-0.947315	-0.348973	-1.481854	-1.123763	-0.472638	-1.505467	-0.125105	-0.154311	-0.236693	-0.441625	-0.910075	-0.366396	-0.015393	-0.189332
-0.631615	-1.007806	-0.983212	-0.383601	-1.423233	-1.044821	-0.37364	-1.496849	-0.154387	-0.20435	-0.401525	-0.535916	-0.777359	-0.209121	0.175393	-0.047058
-0.584052	-0.906164	-0.942563	-0.279961	-1.531641	-1.128555	-0.584118	-1.581511	0.022992	-0.154202	-0.172436	-0.347276	-0.803485	-0.163934	0.198949	-0.014228
-0.623402	-0.922123	-0.959431	-0.263101	-1.514912	-1.125266	-0.545771	-1.603102	-0.118821	-0.254107	-0.296856	-0.460926	-0.828594	-0.185637	0.128766	-0.035158
-0.542425	-0.85313	-0.891812	-0.193898	-1.536296	-1.126566	-0.557049	-1.666869	-0.104382	-0.253733	-0.158068	-0.385004	-0.943795	-0.298344	0.0702060000000001	-0.1301
-0.561018	-0.943097	-0.940137	-0.262599	-1.423233	-1.065881	-0.422546	-1.691152	-0.106419	-0.303883	-0.217886	-0.422914	-1.05186	-0.388795	-0.073414	-0.189332
-0.598158	-0.962708	-0.997915	-0.279357	-1.557442	-1.207	-0.554799	-1.791816	0.025983	-0.2785	-0.050397	-0.309504	-0.913042	-0.253167	0.091157	-0.059001
-0.711577	-1.016784	-1.086828	-0.296411	-1.601864	-1.246123	-0.634834	-1.834601	0.029024	-0.3156	-7.60000000000205E-05	-0.290095	-0.966893	-0.299087	0.031395	-0.094546
-0.683409	-0.948612	-1.033489	-0.227042	-1.50985	-1.14406	-0.515658	-1.812391	-0.092544	-0.390403	-0.092698	-0.366816	-1.024739	-0.411197	-0.030718	-0.126443
-0.662431	-0.932183	-1.013854	-0.209091	-1.639136	-1.265122	-0.66118	-1.894367	-0.14579	-0.41509	-0.119382	-0.404184	-1.161778	-0.544954	-0.147116	-0.238943
-0.509479	-0.858614	-0.970723	-0.174497	-1.606306	-1.264534	-0.655627	-1.937694	-0.139812	-0.464385	-0.145961	-0.441384	-1.416398	-0.833946	-0.362775	-0.425176
-0.727679	-1.016784	-1.132443	-0.313452	-1.664637	-1.322945	-0.716867	-2.034125	-0.056978	-0.489384	-0.084538	-0.423319	-1.353829	-0.743842	-0.246609	-0.351464
-0.757038	-1.021042	-1.167785	-0.329177	-1.717883	-1.458668	-0.797974	-2.118137	-0.119054	-0.587549	-0.05271	-0.422415	-1.374314	-0.789694	-0.239629	-0.409772
-0.775408	-1.291034	-1.179447	-0.448326	-1.968643	-1.634542	-1.102014	-2.17037	-0.172096	-0.513393	-0.035984	-0.384385	-1.57674	-1.054381	-0.493212	-0.660229
-0.620363	-1.344591	-1.056905	-0.447766	-2.012999	-1.599117	-1.134907	-2.138758	-0.343048	-0.56285	-0.327191	-0.572494	-1.396549	-0.833612	-0.289093	-0.625424
-0.516882	-1.358781	-1.007296	-0.466719	-1.878133	-1.438542	-0.919912	-2.073523	-0.43696	-0.624295	-0.507483	-0.703108	-1.515443	-0.944336	-0.443316	-0.751888
-0.553992	-1.376963	-1.067395	-0.448847	-1.832391	-1.343037	-0.905415	-2.06807	-0.363662	-0.624295	-0.464698	-0.60998	-1.443275	-0.833904	-0.401086	-0.720544
-0.607055	-1.397127	-1.13653	-0.448326	-1.940983	-1.458668	-1.028737	-2.125824	-0.387183	-0.649131	-0.471112	-0.59178	-1.62167	-1.054103	-0.622875	-0.863226
-0.646507	-1.342666	-1.170388	-0.41448	-1.908334	-1.457866	-1.065404	-2.133492	-0.495557	-0.698035	-0.5895	-0.703606	-1.589653	-0.988433	-0.569643	-0.830505
-0.683409	-1.36273	-1.224956	-0.430276	-1.883117	-1.439327	-1.028737	-2.134274	-0.586082	-0.759233	-0.662758	-0.796526	-1.491563	-0.920918	-0.437527	-0.762503
-0.604514	-1.310094	-1.224956	-0.412761	-1.954816	-1.536682	-1.107653	-2.194919	-0.63237	-0.83224	-0.783617	-0.924972	-1.406667	-0.789019	-0.323163	-0.655006
-0.84535	-1.448536	-1.414135	-0.516972	-1.963621	-1.573471	-1.096314	-2.227833	-0.702567	-0.906362	-0.922204	-1.019261	-1.601395	-1.032441	-0.565747	-0.798429
-0.782966	-1.377995	-1.397361	-0.431409	-1.996269	-1.613688	-1.162501	-2.263087	-0.50136	-0.83306	-0.654708	-0.778358	-1.527058	-0.966235	-0.496586	-0.750153
-0.777978	-1.310947	-1.36999	-0.343156	-1.993758	-1.535	-1.132836	-2.21861	-0.492582	-0.795531	-0.564407	-0.72131	-1.500333	-0.90019	-0.462432	-0.705282
-0.835609	-1.453214	-1.4463	-0.428991	-1.864282	-1.378848	-0.98072	-2.124254	-0.615101	-0.845394	-0.762266	-0.889947	-1.527058	-0.899896	-0.458433	-0.688294
-0.570064	-1.255591	-1.287297	-0.293008	-1.856601	-1.455159	-0.987488	-2.139516	-0.539321	-0.796351	-0.638439	-0.796906	-1.459609	-0.787857	-0.318893	-0.606266
-0.632888	-1.307298	-1.335264	-0.32753	-1.875594	-1.476305	-0.956639	-2.166445	-0.4194	-0.808151	-0.568837	-0.740159	-1.434544	-0.788695	-0.284915	-0.560483
-0.639784	-1.285908	-1.359621	-0.329649	-2.017448	-1.674488	-1.16086	-2.25546	-0.36664	-0.80793	-0.505256	-0.72131	-1.499164	-0.855982	-0.424185	-0.627189
-0.588567	-1.327355	-1.318419	-0.309963	-2.01256	-1.67298	-1.173677	-2.263087	-0.298981	-0.747232	-0.381006	-0.610418	-1.322832	-0.700425	-0.246604	-0.468643
-0.514467	-1.344591	-1.258765	-0.276043	-1.880641	-1.575217	-1.047078	-2.193342	-0.445763	-0.820713	-0.575247	-0.778205	-1.327718	-0.723189	-0.239629	-0.455951
-0.274202	-1.141868	-1.091761	-0.1408	-1.790668	-1.511838	-0.93908	-2.120148	-0.327717	-0.710995	-0.45807	-0.666682	-1.364787	-0.722525	-0.265768	-0.405345
-0.171292	-1.020037	-1.024238	-0.12227	-1.79736	-1.498083	-0.857496	-1.986441	-0.3314	-0.599804	-0.481147	-0.684817	-1.331457	-0.721813	-0.233796	-0.310152
-0.267386	-0.965974	-1.113039	-0.191024	-1.847901	-1.495581	-0.901528	-1.747931	-0.433927	-0.401472	-0.602398	-0.739423	-1.143938	-0.499384	0.033282	0.020595
-0.265009	-0.787793	-1.167785	-0.22448	-2.076391	-1.670346	-1.151076	-1.515465	-0.545102	-0.041158	-0.633058	-0.702431	-1.244819	-0.699326	-0.062855	0.03816
-0.164073	-0.678873	-1.167785	-0.29361	-2.443823	-1.982038	-1.493952	-1.427838	-0.674923	0.123001	-0.71711	-0.736795	-1.142523	-0.610091	0.061464	0.181376
-0.288438	-0.82174	-1.29753	-0.500081	-2.1939	-1.747833	-1.187512	-1.354675	-0.777638	-0.040469	-0.910251	-0.943342	-1.038436	-0.520599	0.171518	0.199121
0.00284599999999999	-0.711862	-1.091761	-0.364079	-2.078953	-1.689493	-1.005786	-1.453642	-0.5944	-0.14049	-0.746069	-0.869369	-0.888596	-0.385228	0.306152	0.170292
0.00997	-0.752737	-1.033489	-0.328117	-1.887978	-1.498817	-0.783513	-1.405241	-0.503981	-0.227616	-0.746069	-0.887769	-0.884755	-0.410089	0.196619	0.005057
0.104377	-0.731419	-0.903772	-0.174497	-1.871687	-1.459419	-0.796502	-1.413072	-0.245776	-0.177631	-0.384439	-0.589564	-0.826734	-0.410434	0.196619	-0.090005
0.078525	-0.76632	-0.833852	-0.124094	-1.68104	-1.223541	-0.588641	-1.360491	-0.284112	-0.252579	-0.448624	-0.683523	-0.720224	-0.276474	0.253309	-0.110905
0.139928	-0.784809	-0.773322	-0.089448	-1.552722	-1.105713	-0.482408	-1.343989	-0.065889	-0.190745	-0.124686	-0.441097	-0.532432	-0.073041	0.490999	0.037135
0.525783	-0.480416	-0.392739	0.207404	-1.580751	-1.204054	-0.53841	-1.414654	0.195614	-0.115927	0.163633	-0.196226	-0.663579	-0.185645	0.326304	-0.040453
0.434854	-0.549039	-0.420134	0.136014	-1.355451	-0.985298	-0.223875	-1.324329	0.34812	-0.040949	0.226392	-0.138769	-0.653404	-0.208885	0.274206	-0.027955
-0.084052	-0.663055	-0.668414	-0.069926	-1.82268	-1.241413	-0.595723	-0.967877	-0.189751	0.209809	-0.16296	-0.608564	-0.559581	-0.252777	0.248782	0.150205
-0.472399	-0.862276	-0.886783	-0.345633	-1.908334	-1.338357	-0.66386	-0.902644	-0.63237	0.184111	-0.512593	-0.924972	-0.745289	-0.478022	0.024595	0.083813
-0.440127	-0.807121	-0.814401	-0.36362	-1.836555	-1.319891	-0.56545	-1.012337	-0.626064	0.171698	-0.401118	-0.775889	-0.804693	-0.545137	-0.02247	0.066336
-0.332645	-0.746712	-0.768246	-0.348496	-1.830009	-1.341679	-0.607219	-1.097	-0.486488	0.234372	-0.227464	-0.552877	-0.846138	-0.589415	-0.033231	0.068243
-0.349145	-0.748882	-0.792688	-0.296411	-1.711372	-1.243012	-0.459836	-1.123155	-0.451461	0.1588	-0.275114	-0.571846	-0.863983	-0.545137	-0.065224	0.081928
-0.608988	-0.887677	-0.985459	-0.451661	-1.808795	-1.222784	-0.49123	-0.927142	-0.621029	0.398481	-0.386649	-0.684259	-0.789249	-0.500053	-0.018252	0.210603
-0.803797	-0.767371	-0.985937	-0.484475	-2.1939	-1.281904	-0.756005	-0.323185	-1.397259	0.601802	-0.970444	-1.472191	-0.981076	-0.899896	-0.369768	0.162762
-2.054927	-1.310094	-1.748306	-1.32675	-2.837894	-1.476305	-1.302653	0.528281	-2.458255	0.474618	-1.89984	-2.779542	-1.144578	-1.469226	-0.679828	0.066336
-3.083438	-1.811644	-2.343746	-2.277994	-3.035738	-1.940274	-1.440968	0.937142	-2.474593	0.601779	-1.557578	-2.615727	-0.723433	-1.142096	-0.316443	0.400763
-3.016475	-2.032567	-2.307045	-2.636589	-2.850138	-2.404634	-1.108803	0.418408	-2.132399	0.46265	-1.16149	-2.056556	-0.380745	-0.744884	0.00103900000000001	0.644155
-2.319146	-1.701819	-1.722453	-2.458665	-2.612797	-2.539849	-0.779531	-0.195022	-1.595052	0.221666	-0.644274	-1.385572	-0.147604	-0.411197	0.214318	0.818962
-1.950878	-1.665105	-1.483415	-2.362489	-2.173936	-2.330054	-0.243854	-0.531644	-1.207708	0.020602	-0.278376	-0.796906	-0.070479	-0.0963829999999999	0.367336	0.916525
-1.419737	-1.403543	-1.124815	-2.182202	-1.846037	-2.085009	0.160287	-0.528501	-0.769372	0.208968	0.087569	-0.178036	-0.024735	0.132205	0.485328	0.972308
-0.946422	-1.180692	-0.857906	-1.940321	-1.594754	-1.890067	0.529077	-0.470029	-0.372451	0.322586	0.341948	0.33639	-0.02561	0.289974	0.484803	0.946932
-0.542425	-0.857597	-0.612875	-1.627839	-1.532717	-1.796113	0.594213	-0.575942	0.05864	0.373153	0.625832	0.780873	-0.00263899999999999	0.47302	0.6324	1.032182
-0.53029	-0.890092	-0.663698	-1.562204	-1.339129	-1.600689	0.81252	-0.554023	0.33791	0.398843	0.785854	1.056007	0.00150800000000001	0.658789	0.681921	1.107897
-0.062692	-0.471018	-0.309384	-1.112397	-1.131327	-1.32664	1.108188	-0.517776	0.540651	0.436518	1.041793	1.310017	-0.244187	0.478038	0.493654	0.990812
0.148184	-0.377302	-0.205642	-0.944325	-1.065027	-1.326016	1.164718	-0.526059	0.613295	0.411169	1.020413	1.330144	-0.331676	0.431594	0.477466	0.958529
0.449595	-0.197918	-0.0134550000000001	-0.758437	-1.197258	-1.54277	0.987905	-0.656074	0.636634	0.322905	0.967533	1.274234	-0.23032	0.588234	0.634825	1.044849
0.499261	-0.153714	0.00749100000000003	-0.673481	-1.123816	-1.562397	1.066283	-0.728847	0.667928	0.146028	0.829023	1.074662	-0.425164	0.404755	0.461106	0.930135
0.144269	-0.50462	-0.271606	-0.910508	-1.252743	-1.737743	0.872443	-0.757701	0.631763	0.158899	0.727519	0.942665	-0.550771	0.198506	0.254785	0.835784
0.060577	-0.644512	-0.341462	-1.078232	-1.207898	-1.776668	0.941579	-0.784857	0.639146	0.272149	0.843949	0.999303	-0.534536	0.246749	0.241528	0.878605
0.37452	-0.29626	-0.030851	-0.876185	-1.150728	-1.795862	1.000539	-0.857877	0.785736	0.297276	1.065305	1.153308	-0.481574	0.312885	0.324118	0.930897
0.335985	-0.371755	-0.090728	-0.943735	-1.120077	-1.815315	1.064765	-0.947346	0.816887	0.208995	1.091246	1.154464	-0.412941	0.428539	0.417837	1.026579
0.351657	-0.381031	-0.075356	-0.893744	-1.105753	-1.815315	1.039929	-1.019501	1.037949	0.209307	1.248086	1.316285	-0.492141	0.316585	0.319907	1.007999
0.140566	-0.516299	-0.231221	-1.010937	-1.146637	-1.834867	1.030593	-1.0723	0.961507	0.133779	1.187462	1.217131	-0.350798	0.460776	0.463443	1.135937
0.309137	-0.341023	-0.111953	-0.842938	-1.122089	-1.776181	1.109373	-1.064053	0.830035	0.033256	1.001104	0.98153	-0.228783	0.64235	0.659526	1.251402
0.196283	-0.459885	-0.218359	-0.976845	-1.248272	-1.949601	0.921396	-1.209271	0.858955	-0.004584	1.001315	0.89966	-0.373502	0.478893	0.603531	1.170436
0.318529	-0.29777	-0.137622	-0.892912	-1.225084	-2.006206	0.951202	-1.281836	0.98765	-0.029442	1.136344	0.920321	-0.406857	0.458524	0.592848	1.120014
0.0432920000000001	-0.572574	-0.337341	-1.061365	-1.215846	-2.046315	0.946026	-1.378031	0.998468	-0.11677	1.140341	0.845324	-0.651681	0.08918	0.359196	0.893556
0.184384	-0.484536	-0.239743	-0.960829	-1.417357	-2.335092	0.666772	-1.57146	0.641708	-0.415379	0.713137	0.37806	-0.681393	0.04403	0.335825	0.812121
0.0731299999999999	-0.657022	-0.364191	-1.127044	-1.437346	-2.468761	0.624239	-1.67524	0.830849	-0.403047	1.031344	0.587393	-0.897998	-0.206435	0.179068	0.652047
0.355244	-0.500475	-0.120608	-0.994034	-1.443682	-2.506851	0.657721	-1.702264	0.7254	-0.477279	0.877778	0.453756	-1.053157	-0.379154	0.026097	0.535351
0.0141340000000001	-0.856206	-0.440418	-1.244703	-1.58511	-2.677209	0.490974	-1.79176	0.67826	-0.514173	0.787669	0.359814	-0.894731	-0.207484	0.272829	0.65407
-0.093513	-0.865209	-0.489522	-1.262725	-1.710109	-2.772003	0.404385	-1.850835	0.688905	-0.526679	0.898962	0.414589	-0.925399	-0.251828	0.264945	0.620828
-0.210871	-1.007806	-0.613732	-1.379319	-1.7641	-2.771634	0.326081	-1.931963	0.264281	-0.747887	0.461963	0.011727	-1.116274	-0.453116	0.0739529999999999	0.44281
-0.18823	-0.957798	-0.563197	-1.36301	-1.854527	-2.847437	0.239971	-1.990792	0.065187	-0.809313	0.196063	-0.138294	-0.891205	-0.16332	0.425995	0.688196
-0.138478	-1.000212	-0.625724	-1.395091	-1.884569	-2.809752	0.259182	-2.008464	0.116313	-0.735763	0.175734	-0.061277	-1.082489	-0.320196	0.272829	0.590482
-0.299352	-1.031602	-0.728937	-1.462836	-1.896482	-2.7908	0.245203	-1.990208	0.267243	-0.600529	0.374253	0.106818	-1.267282	-0.560728	0.032826	0.455997
-0.59035	-1.210366	-0.927353	-1.595434	-1.973615	-2.771276	0.141219	-1.979237	0.139621	-0.575978	0.218678	-0.00608500000000001	-1.232475	-0.56456	0.027531	0.458068
-0.486559	-1.053539	-0.843367	-1.495949	-1.980164	-2.734057	0.105938	-1.963377	-0.073315	-0.637412	0.00937199999999999	-0.212687	-1.208893	-0.561618	0.118045	0.52064
-0.492939	-1.0659	-0.850155	-1.479462	-2.017506	-2.771517	0.078601	-1.988396	-0.167731	-0.661891	0.00753300000000001	-0.250297	-1.281439	-0.672647	0.094991	0.440083
-0.528184	-1.106342	-0.874752	-1.529134	-2.098347	-2.90272	0.051717	-2.065096	-0.180344	-0.662046	0.017051	-0.289818	-1.446598	-0.875669	-0.073397	0.282757
-0.74523	-1.351689	-1.110184	-1.727501	-2.213336	-3.052182	-0.086382	-2.229594	-0.261881	-0.796894	-0.127161	-0.476752	-1.354568	-0.811057	0.066144	0.301314
-0.870565	-1.481585	-1.177929	-1.826154	-2.480813	-3.388198	-0.444998	-2.438649	-0.380813	-0.906587	-0.262252	-0.622488	-1.340557	-0.811337	0.070156	0.302902
-0.936377	-1.617018	-1.24668	-1.924683	-2.462689	-3.369438	-0.359019	-2.489121	-0.441797	-0.980192	-0.230512	-0.608498	-1.517662	-1.008966	-0.108421	0.124792
-0.813012	-1.518922	-1.127749	-1.858671	-2.327185	-3.272886	-0.169655	-2.475236	-0.550261	-1.089681	-0.335406	-0.701693	-1.557297	-1.009695	-0.0774150000000001	0.109855
-0.75968	-1.532554	-1.149094	-1.891682	-2.510438	-3.497165	-0.422546	-2.615509	-0.556868	-1.150217	-0.350217	-0.722145	-1.611776	-0.988102	-0.135338	0.127074
-1.019874	-1.750296	-1.381162	-2.103631	-2.540052	-3.515984	-0.446924	-2.649617	-0.42237	-1.125764	-0.162594	-0.535787	-1.725207	-1.11998	-0.258856	0.031688
-1.204871	-1.943412	-1.561705	-2.25003	-2.69896	-3.626635	-0.625782	-2.74341	-0.749004	-1.355276	-0.576345	-0.889969	-1.711356	-1.075929	-0.220386	0.062923
-1.127242	-1.857823	-1.49522	-2.217201	-2.669487	-3.571354	-0.607219	-2.74341	-0.696762	-1.319238	-0.507483	-0.834215	-1.711356	-1.054103	-0.197152	0.095798
-0.980919	-1.783149	-1.445349	-2.136505	-2.726084	-3.644875	-0.662862	-2.759357	-0.66762	-1.271182	-0.485409	-0.815312	-1.682406	-1.032237	-0.173873	0.111431
-0.882134	-1.681285	-1.328592	-2.021381	-2.664765	-3.607327	-0.552798	-2.723936	-0.516029	-1.16223	-0.352315	-0.647681	-1.769174	-1.185731	-0.278068	0.0473
-0.886757	-1.606143	-1.323922	-1.956838	-2.660494	-3.590559	-0.575671	-2.71773	-0.363662	-1.089241	-0.098231	-0.479642	-1.737792	-1.164072	-0.25075	0.080175
-1.063162	-1.76406	-1.447647	-2.038832	-2.712525	-3.68183	-0.644329	-2.775988	-0.427716	-1.137419	-0.16051	-0.573128	-1.687135	-1.141496	-0.228183	0.093452
-0.996937	-1.783149	-1.457289	-2.054916	-2.850138	-3.845818	-0.858997	-2.876992	-0.52456	-1.149802	-0.217802	-0.648107	-1.944201	-1.447014	-0.474064	-0.112445
-1.291163	-2.077697	-1.674957	-2.283198	-2.865994	-3.845818	-0.858997	-2.928103	-0.821495	-1.294935	-0.550189	-0.982544	-1.864564	-1.382551	-0.346488	-0.059954
-1.142815	-2.004874	-1.605946	-2.250802	-3.050368	-4.067058	-1.056011	-3.100965	-0.692259	-1.293991	-0.428333	-0.924972	-1.846819	-1.38245	-0.361347	-0.090005
-1.308851	-2.122209	-1.653661	-2.297466	-2.94438	-4.026851	-0.853218	-3.119878	-0.710915	-1.367753	-0.572909	-1.01825	-2.016389	-1.55506	-0.600087	-0.238943
-1.402479	-2.182384	-1.748166	-2.380259	-2.989885	-3.993586	-0.929304	-3.166821	-0.690764	-1.378937	-0.472244	-0.945522	-1.662049	-1.18603	-0.242397	0.019626
-1.282944	-2.055091	-1.615148	-2.263591	-2.853857	-3.843142	-0.737606	-3.092919	-0.840478	-1.498154	-0.601924	-1.055348	-1.574843	-1.054338	-0.090913	0.115957
-1.26862	-2.078852	-1.642038	-2.282768	-3.033209	-4.005859	-0.9331	-3.151128	-0.90271	-1.545447	-0.628269	-1.089782	-1.846319	-1.293641	-0.335879	-0.03449
-1.083409	-1.841692	-1.490264	-2.183552	-3.077302	-4.030551	-1.013837	-3.159294	-0.87167	-1.485971	-0.580087	-1.017589	-1.968364	-1.403877	-0.451099	-0.111691
-1.248183	-1.957084	-1.656246	-2.282768	-3.021109	-3.900669	-0.907209	-3.088494	-0.860985	-1.450463	-0.604444	-1.036678	-1.983302	-1.425464	-0.474064	-0.128004
-1.355076	-2.020345	-1.702355	-2.311729	-3.01729	-3.896399	-0.884395	-3.083123	-0.89357	-1.439888	-0.725183	-1.110392	-1.977136	-1.49118	-0.458433	-0.141131
-1.32321	-2.009644	-1.729466	-2.315051	-3.144054	-4.008867	-1.096314	-3.170638	-0.87498	-1.42581	-0.599373	-1.091658	-1.807688	-1.357454	-0.369645	-0.0682630000000001
-1.148201	-1.915226	-1.598398	-2.230441	-2.977158	-3.8784	-0.872162	-3.12494	-0.873502	-1.438958	-0.637639	-1.111651	-1.835027	-1.424786	-0.358205	-0.101218
-1.095389	-1.959253	-1.592486	-2.233626	-3.113264	-4.076571	-1.018254	-3.241909	-0.71931	-1.390711	-0.448624	-0.944994	-1.933322	-1.534626	-0.473443	-0.17124
-1.065184	-1.965652	-1.561178	-2.1661	-3.1445	-4.13875	-1.111211	-3.325431	-0.830477	-1.509161	-0.631007	-1.181444	-1.880764	-1.490323	-0.409744	-0.166273
-1.161225	-2.05124	-1.639522	-2.231442	-3.13772	-4.191566	-1.137068	-3.432234	-0.782085	-1.569506	-0.594175	-1.182526	-1.916887	-1.57785	-0.46511	-0.199238
-1.33976	-2.195057	-1.730487	-2.326618	-3.115839	-4.239795	-1.06686	-3.500589	-1.026707	-1.750325	-0.841305	-1.423539	-2.060815	-1.727425	-0.687422	-0.349515
-1.245922	-2.186752	-1.694149	-2.313915	-3.106281	-4.226741	-1.083717	-3.538616	-0.933193	-1.772869	-0.623518	-1.23927	-1.949302	-1.553644	-0.488731	-0.240964
-1.130077	-2.108133	-1.581625	-2.294007	-3.09053	-4.226059	-1.04142	-3.538616	-0.951704	-1.821549	-0.707481	-1.277158	-1.937006	-1.533468	-0.405272	-0.227909
-1.093094	-2.135466	-1.635086	-2.346063	-3.025448	-4.183517	-0.920946	-3.475453	-0.698767	-1.701633	-0.372657	-0.963166	-1.923432	-1.44767	-0.401086	-0.156637
-1.241392	-2.230868	-1.713761	-2.373905	-2.982763	-4.074607	-0.817191	-3.324256	-0.939555	-1.761053	-0.729575	-1.257824	-1.775417	-1.314805	-0.192149	-0.019288
-1.29828	-2.246577	-1.747191	-2.423047	-3.174211	-4.203276	-1.030424	-3.334054	-1.121613	-1.785864	-1.023025	-1.496486	-1.710116	-1.229738	-0.135338	0.048961
-1.238614	-2.144016	-1.694291	-2.373218	-3.192544	-4.205085	-1.054653	-3.343013	-1.058287	-1.702113	-0.82293	-1.350378	-1.990855	-1.621158	-0.473443	-0.202182
-1.169032	-2.176043	-1.688277	-2.407101	-3.159805	-4.153104	-1.017387	-3.370638	-0.925392	-1.582464	-0.623456	-1.203431	-1.822894	-1.445943	-0.239496	-0.053732
-1.111362	-2.205486	-1.691765	-2.458665	-3.284615	-4.333004	-1.17506	-3.488385	-0.815411	-1.498411	-0.498384	-1.09283	-1.577588	-1.185952	-0.041762	0.083813
-0.810784	-2.064279	-1.545119	-2.329614	-3.20894	-4.146908	-1.018254	-3.079839	-0.791825	-1.051687	-0.656621	-0.999951	-1.545718	-1.119868	0.009632	0.133572
-0.961027	-2.17743	-1.626616	-2.309367	-3.244646	-4.00745	-1.059732	-2.736802	-0.988055	-0.941611	-1.066525	-1.330324	-1.350348	-0.964227	0.214746	0.281665
-1.021025	-2.209853	-1.70498	-2.326618	-3.107557	-3.822661	-0.920768	-2.536697	-0.977166	-0.893169	-0.999048	-1.276064	-1.760068	-1.490626	-0.295475	-0.055939
-0.950586	-2.157612	-1.676796	-2.343204	-3.035738	-3.730693	-0.859823	-2.467481	-0.850043	-0.856771	-0.703755	-1.07399	-1.53324	-1.273221	-0.09954	0.084807
-0.733415	-2.036675	-1.570146	-2.294007	-2.982183	-3.731564	-0.847375	-2.451587	-0.911144	-0.954905	-0.729345	-1.129911	-1.596643	-1.359066	-0.101198	0.041436
-0.628033	-1.91224	-1.442579	-2.230441	-2.858799	-3.604687	-0.681379	-2.418915	-1.07251	-1.137034	-0.900855	-1.368219	-1.593529	-1.358579	-0.034593	0.058091
-0.863749	-2.206434	-1.686903	-2.457761	-2.666339	-3.450248	-0.430056	-2.36041	-1.020814	-1.245978	-0.998533	-1.478098	-1.660668	-1.425697	-0.118768	0.005057
-0.945438	-2.212671	-1.699699	-2.486723	-2.682015	-3.47416	-0.442223	-2.303471	-1.003555	-1.281997	-1.024444	-1.532602	-1.431798	-1.229447	0.086831	0.131548
-0.929754	-2.193697	-1.688277	-2.455546	-2.792449	-3.527858	-0.571952	-2.267388	-0.843715	-1.135743	-0.635167	-1.202074	-1.650877	-1.534583	-0.231554	-0.059954
-0.70435	-1.947861	-1.482589	-2.294604	-2.878213	-3.638477	-0.7071	-2.232098	-0.77535	-1.086328	-0.496218	-1.107428	-1.640778	-1.512905	-0.243575	-0.047058
-0.514467	-1.822947	-1.368882	-2.198293	-2.709028	-3.436009	-0.516444	-2.103282	-0.728602	-1.040046	-0.519491	-1.093015	-1.61637	-1.469003	-0.180638	-0.010472
-0.730051	-2.015674	-1.523647	-2.312705	-2.641436	-3.363021	-0.386402	-2.018762	-0.804134	-1.076689	-0.689024	-1.277061	-1.630196	-1.533811	-0.238128	-0.041497
-0.679089	-1.870779	-1.457289	-2.183933	-2.490601	-3.212211	-0.213137	-1.929908	-0.745991	-1.040046	-0.670468	-1.276791	-1.563712	-1.491052	-0.246604	-0.027955
-0.727679	-1.893554	-1.461838	-2.149987	-2.443823	-3.140492	-0.193541	-1.906067	-0.780727	-1.112707	-0.785884	-1.404626	-1.433185	-1.382107	-0.184859	0.020595
-0.558728	-1.715336	-1.271386	-1.987848	-2.417474	-3.13791	-0.169655	-1.919748	-0.633587	-1.062606	-0.490174	-1.145036	-1.410564	-1.380689	-0.201344	0.023701
-0.567579	-1.782058	-1.280898	-2.005143	-2.316934	-3.063447	-0.051103	-1.903619	-0.635451	-1.112707	-0.580855	-1.148266	-1.523332	-1.447786	-0.312373	-0.060875
-0.211156	-1.556107	-1.046099	-1.824053	-2.252268	-3.049618	0.013815	-1.882117	-0.38424	-1.003744	-0.274174	-0.834283	-1.38429	-1.272371	-0.148451	0.085833
-0.142463	-1.464547	-0.993098	-1.759082	-2.065193	-2.89638	0.225211	-1.809244	-0.424538	-1.063497	-0.389312	-0.925736	-1.352091	-1.164141	-0.112013	0.127903
-0.10047	-1.39298	-0.947315	-1.660172	-2.148836	-2.956305	0.089682	-1.795319	-0.277817	-1.002874	-0.229819	-0.79627	-1.17339	-1.010158	0.063228	0.273242
-0.226007	-1.458583	-1.047887	-1.727042	-2.210147	-3.046744	-0.025474	-1.800722	-0.231231	-0.942369	-0.086093	-0.666588	-1.286709	-1.163758	-0.085232	0.156882
-0.066846	-1.281105	-0.862483	-1.578232	-2.083984	-2.878639	0.112644	-1.695863	-0.403815	-1.002324	-0.313218	-0.925736	-1.103167	-1.010317	0.101924	0.320333
-0.093513	-1.349014	-0.885828	-1.644915	-1.930882	-2.725893	0.357318	-1.535964	-0.460451	-0.954905	-0.413836	-0.982544	-1.171985	-1.097758	0.009632	0.258511
0.171349	-1.103962	-0.663698	-1.478805	-2.060056	-2.932517	0.174462	-1.562531	-0.06283	-0.710244	0.048434	-0.591917	-1.274188	-1.294744	-0.199817	0.146198
0.0206620000000001	-1.238923	-0.783531	-1.545777	-2.007551	-2.89638	0.20027	-1.502386	0.03845	-0.62363	0.108165	-0.609362	-0.832194	-0.854226	0.229441	0.452809
0.173477	-1.103962	-0.663698	-1.41262	-1.82368	-2.686864	0.445734	-1.358062	0.079435	-0.538307	0.210424	-0.498428	-1.010322	-1.118897	-0.024448	0.259489
0.119662	-1.112872	-0.645237	-1.396381	-2.040154	-2.897186	0.20027	-1.369128	-0.210509	-0.636321	-0.160347	-0.870948	-0.697107	-0.808698	0.243471	0.471775
0.188342	-1.085578	-0.541851	-1.362855	-1.870426	-2.744486	0.426696	-1.243215	-0.113194	-0.526306	0.004521	-0.685365	-0.953989	-1.118897	-0.086505	0.259489
0.129132	-1.194493	-0.588159	-1.41262	-1.584837	-2.443018	0.764484	-1.102668	0.062487	-0.440172	0.036732	-0.609931	-1.09607	-1.271498	-0.220427	0.150205
0.196283	-1.077408	-0.508473	-1.296428	-1.685592	-2.589814	0.693517	-1.115982	0.222583	-0.353226	0.208275	-0.460926	-0.913042	-1.075607	-0.071701	0.290809
0.207426	-1.032831	-0.461478	-1.24584	-1.762718	-2.636704	0.56348	-1.142064	0.244958	-0.316296	0.219742	-0.459887	-0.807024	-0.944341	-0.015393	0.365883
0.42027	-0.86657	-0.313892	-1.129052	-1.89943	-2.823608	0.346717	-1.256594	0.210497	-0.365319	0.236196	-0.497914	-0.81428	-0.921087	0.027531	0.378206
0.537892	-0.739237	-0.175916	-1.06205	-1.563128	-2.498427	0.821487	-1.136666	0.145159	-0.452312	0.141603	-0.592017	-0.899031	-1.009968	-0.027065	0.299859
0.49385	-0.790869	-0.19514	-1.112437	-1.708934	-2.729048	0.580728	-1.309369	0.351231	-0.426759	0.410562	-0.384718	-0.970207	-1.076139	-0.0890479999999999	0.251899
0.347417	-0.891239	-0.272831	-1.212127	-1.655115	-2.74052	0.648871	-1.302921	0.423605	-0.464815	0.381913	-0.423228	-0.847841	-0.986075	0.046785	0.358659
0.32037	-0.903621	-0.296853	-1.212796	-1.649321	-2.724988	0.630005	-1.270004	0.345061	-0.501288	0.328173	-0.479005	-0.885764	-1.009968	-0.073397	0.314966
0.38576	-0.835819	-0.228455	-1.145464	-1.660231	-2.712212	0.557867	-1.250119	0.486318	-0.3905	0.570867	-0.27273	-0.910075	-1.032366	-0.061998	0.316331
0.537892	-0.686067	-0.097056	-1.045205	-1.57969	-2.650528	0.751348	-1.199868	0.283662	-0.477285	0.262057	-0.553812	-1.135249	-1.294986	-0.269929	0.160914
0.499261	-0.723296	-0.111953	-1.045205	-1.512396	-2.614024	0.777739	-1.210903	0.33791	-0.501991	0.273342	-0.572014	-1.003192	-1.141433	-0.123003	0.256656
0.376259	-0.790869	-0.227031	-1.112437	-1.608695	-2.694442	0.629651	-1.278314	0.399013	-0.538307	0.335928	-0.591599	-0.760753	-0.878134	0.093619	0.430587
0.285901	-0.870416	-0.245592	-1.145636	-1.512396	-2.614791	0.78376	-1.262949	0.438981	-0.526633	0.403717	-0.498061	-0.78416	-0.921629	0.067506	0.417419
0.26677	-0.961541	-0.294593	-1.229354	-1.716154	-2.843508	0.480861	-1.409047	0.435816	-0.549734	0.4471	-0.514847	-0.709038	-0.810709	0.24425	0.483278
0.404955	-0.817315	-0.122287	-1.112059	-1.599525	-2.75017	0.640678	-1.409777	0.591581	-0.513575	0.645052	-0.328774	-0.908949	-1.010413	0.031395	0.350122
0.426195	-0.781462	-0.134809	-1.111874	-1.583144	-2.730345	0.715657	-1.452978	0.637107	-0.574701	0.67645	-0.345795	-0.778492	-0.878135	0.151884	0.445599
0.32037	-0.86657	-0.252393	-1.212873	-1.625151	-2.823608	0.619199	-1.540662	0.462171	-0.746835	0.471362	-0.552877	-0.738776	-0.789349	0.264945	0.52409
0.167252	-0.995988	-0.370765	-1.329493	-1.676544	-2.91968	0.494495	-1.621758	0.249316	-0.90599	0.279843	-0.758978	-1.209744	-1.294065	-0.184928	0.153683
0.060577	-1.097327	-0.459986	-1.429626	-1.683461	-2.97355	0.492284	-1.716852	0.232215	-0.992169	0.223451	-0.815608	-1.248592	-1.338533	-0.15092	0.155502
0.148184	-1.103962	-0.402556	-1.41277	-1.604931	-2.96849	0.591725	-1.773526	0.513213	-0.893851	0.662066	-0.497673	-1.204222	-1.229615	-0.04647	0.20333
-0.060537	-1.305237	-0.56423	-1.561529	-1.773471	-3.157187	0.4084	-1.915362	0.396047	-1.040235	0.384256	-0.722168	-1.111904	-1.142194	0.093619	0.269845
-0.022727	-1.216171	-0.532541	-1.495323	-1.767093	-3.122078	0.396546	-1.89914	0.237714	-1.125506	0.11664	-0.945346	-1.237452	-1.251233	-0.061038	0.176558
-0.10047	-1.305237	-0.608126	-1.528321	-1.813696	-3.141261	0.308532	-1.90842	0.023994	-1.186387	-0.154318	-1.148538	-1.1785	-1.181782	0.084847	0.232551
-0.089008	-1.328233	-0.595666	-1.543469	-1.774322	-3.048968	0.360128	-1.840256	0.09728	-1.100846	0.029537	-0.963424	-1.44441	-1.426061	-0.243575	0.04652
-0.15039	-1.369958	-0.668167	-1.611835	-1.708934	-2.954304	0.498097	-1.786778	0.109345	-1.064764	0.037671	-0.926968	-1.428126	-1.360705	-0.216395	0.079349
-0.0289429999999999	-1.176166	-0.585887	-1.512386	-1.626691	-2.877009	0.573392	-1.757271	0.27095	-1.028567	0.164866	-0.722684	-1.45366	-1.404013	-0.269929	0.032513
-0.10047	-1.197902	-0.639754	-1.528321	-1.834043	-3.026604	0.345233	-1.862744	0.286294	-1.05292	0.133704	-0.741268	-1.361327	-1.251525	-0.228183	0.108411
-0.232209	-1.343648	-0.756332	-1.577427	-1.82368	-3.043136	0.300348	-1.877309	0.255698	-1.089104	0.158236	-0.741298	-1.416398	-1.229803	-0.224315	0.109855
-0.217835	-1.269851	-0.715107	-1.511571	-1.707737	-2.888248	0.541032	-1.847561	0.246339	-1.088575	0.22938	-0.665998	-1.563773	-1.38225	-0.335879	0.01241
-0.168939	-1.29194	-0.722281	-1.559892	-1.770897	-2.969449	0.439581	-1.922246	0.214218	-1.162129	0.161083	-0.722616	-1.516567	-1.317131	-0.224315	0.04652
-0.324112	-1.441642	-0.896054	-1.710888	-1.842766	-3.100232	0.33222	-2.026409	0.211529	-1.210519	0.098843	-0.834104	-1.776939	-1.599372	-0.500697	-0.160563
-0.353549	-1.447485	-0.915976	-1.693554	-1.898053	-3.117618	0.281389	-2.077121	0.216956	-1.23433	0.077267	-0.852832	-1.905814	-1.793584	-0.702873	-0.303056
-0.330432	-1.396149	-0.848356	-1.643446	-2.139732	-3.394681	-0.057549	-2.18836	0.088586	-1.232991	0.064872	-0.924031	-1.500333	-1.38245	-0.274029	0.016922
-0.23445	-1.341645	-0.790287	-1.610612	-2.04888	-3.268066	0.067885	-2.095676	-0.086647	-1.233746	-0.088327	-0.981566	-1.760973	-1.68604	-0.569643	-0.190137
-0.238776	-1.375893	-0.809604	-1.594457	-2.038393	-3.209179	0.130277	-2.023034	-0.319489	-1.258387	-0.356416	-1.203572	-1.833494	-1.793714	-0.695429	-0.269946
-0.32348	-1.505666	-0.932661	-1.724919	-2.076391	-3.230522	0.042997	-2.034037	-0.343048	-1.209242	-0.417453	-1.23927	-1.732122	-1.68604	-0.611632	-0.221935
-0.815189	-1.96028	-1.321565	-2.070363	-2.21266	-3.288166	-0.087862	-2.078784	-0.47204	-1.208984	-0.625691	-1.367405	-1.819291	-1.813587	-0.701044	-0.293748
-0.916444	-2.052894	-1.414135	-2.166573	-2.344186	-3.413926	-0.31251	-2.170676	-0.518313	-1.172096	-0.552778	-1.310808	-1.86831	-1.879373	-0.774468	-0.360146
-0.953082	-2.070629	-1.428362	-2.182202	-2.539496	-3.61418	-0.473329	-2.297417	-0.519227	-1.194678	-0.470725	-1.233084	-2.015328	-1.96552	-0.888848	-0.425176
-0.748509	-1.893554	-1.235309	-2.052641	-2.509746	-3.59614	-0.417819	-2.349396	-0.698767	-1.341039	-0.76254	-1.438618	-1.969534	-1.836695	-0.782543	-0.361032
-0.901351	-2.058617	-1.394836	-2.169124	-2.603248	-3.657476	-0.515658	-2.449113	-0.709581	-1.399966	-0.808978	-1.472191	-2.023354	-1.857746	-0.759623	-0.375539
-0.97625	-2.172816	-1.47854	-2.231892	-2.49574	-3.563185	-0.380444	-2.464097	-0.763365	-1.557324	-0.966063	-1.603848	-2.004566	-1.792628	-0.667498	-0.326532
-1.233868	-2.367575	-1.645988	-2.375174	-2.420078	-3.506785	-0.287777	-2.532473	-0.621029	-1.533858	-0.676968	-1.386187	-2.267827	-2.051011	-0.915398	-0.503707
-1.293257	-2.435585	-1.707571	-2.391738	-2.571878	-3.670543	-0.504254	-2.702819	-0.835813	-1.712267	-0.909764	-1.604219	-2.240462	-2.029699	-0.839656	-0.489108
-1.150195	-2.329252	-1.597051	-2.328752	-2.590645	-3.689664	-0.467234	-2.754198	-0.909432	-1.829686	-1.008265	-1.727435	-2.231034	-1.985745	-0.713649	-0.436039
-0.97861	-2.225039	-1.506967	-2.247027	-2.824438	-3.965357	-0.761984	-2.88318	-0.592107	-1.650067	-0.543925	-1.342235	-2.227059	-1.963136	-0.682163	-0.418678
-1.350018	-2.566127	-1.83308	-2.556113	-2.689453	-3.803753	-0.595723	-2.774173	-0.652878	-1.688629	-0.755382	-1.475756	-2.100316	-1.834428	-0.583294	-0.339868
-1.295711	-2.555888	-1.846918	-2.521021	-2.655548	-3.705384	-0.516534	-2.700135	-0.486488	-1.544791	-0.46994	-1.182526	-2.392575	-2.196915	-0.981317	-0.605217
-1.477195	-2.741259	-2.004352	-2.651758	-2.561051	-3.555162	-0.435751	-2.621068	-0.698767	-1.639538	-0.703755	-1.36461	-2.300376	-2.134666	-0.933409	-0.561471
-1.22771	-2.449858	-1.778958	-2.393318	-2.674311	-3.652517	-0.590426	-2.676215	-0.933193	-1.758298	-1.027027	-1.637252	-2.074864	-1.851338	-0.636601	-0.349472
-1.046908	-2.306722	-1.653952	-2.297466	-2.60642	-3.624313	-0.496261	-2.677991	-0.792594	-1.709443	-0.815244	-1.468945	-2.374606	-2.114243	-0.922658	-0.547123
-0.905158	-2.207345	-1.585328	-2.21488	-2.560975	-3.579201	-0.411591	-2.677101	-0.614944	-1.640291	-0.654065	-1.274487	-2.324865	-2.048498	-0.845711	-0.497306
-1.056513	-2.330106	-1.686903	-2.279132	-2.368477	-3.385959	-0.15042	-2.576834	-0.532558	-1.651353	-0.64249	-1.254087	-2.111143	-1.790013	-0.616844	-0.323441
-1.015249	-2.226721	-1.653661	-2.213832	-2.5503	-3.538404	-0.393035	-2.664304	-0.508708	-1.647549	-0.552243	-1.225231	-2.046079	-1.74346	-0.533122	-0.270433
-0.962563	-2.15418	-1.616119	-2.1661	-2.628566	-3.59614	-0.46107	-2.666139	-0.739818	-1.711167	-0.865767	-1.473553	-2.235724	-1.954839	-0.71608	-0.40661
-0.711577	-1.892661	-1.402406	-1.969789	-2.679803	-3.631005	-0.553437	-2.680838	-0.650922	-1.614207	-0.667142	-1.323357	-2.39397	-2.154756	-0.962589	-0.542076
-0.693089	-1.962223	-1.419132	-2.018842	-2.563569	-3.488647	-0.374422	-2.590647	-0.681405	-1.591833	-0.675502	-1.309082	-2.287605	-2.087986	-0.865824	-0.476508
-0.461105	-1.71809	-1.218463	-1.887142	-2.527946	-3.417783	-0.298879	-2.508353	-0.57696	-1.460575	-0.665978	-1.255284	-1.97951	-1.745212	-0.626884	-0.28938
-0.544649	-1.819075	-1.33588	-1.938333	-2.53679	-3.392418	-0.300223	-2.424487	-0.614944	-1.460575	-0.767213	-1.328402	-2.038602	-1.83256	-0.753227	-0.353019
-0.593466	-1.841692	-1.352084	-1.936313	-2.569215	-3.375404	-0.38691	-2.425408	-0.519227	-1.373566	-0.614234	-1.24754	-2.008325	-1.853043	-0.786361	-0.35187
-0.782966	-2.053664	-1.513537	-2.033854	-2.668724	-3.480385	-0.454195	-2.472505	-0.570635	-1.38767	-0.595247	-1.235298	-2.118771	-2.001974	-0.894072	-0.443588
-0.643987	-2.002623	-1.403751	-1.951251	-2.690525	-3.539626	-0.467017	-2.526134	-0.564113	-1.435651	-0.547904	-1.19763	-2.27096	-2.107228	-0.991871	-0.504532
-0.59035	-2.009644	-1.416764	-1.97233	-2.738549	-3.601336	-0.503892	-2.565733	-0.386993	-1.374043	-0.355318	-1.062869	-2.25143	-2.090195	-0.949566	-0.494076
-0.519246	-1.964851	-1.326097	-1.920666	-2.598295	-3.490599	-0.330444	-2.498302	-0.427716	-1.436421	-0.555167	-1.181444	-2.124156	-1.922344	-0.820352	-0.376436
-0.59035	-1.992872	-1.385848	-1.939483	-2.536461	-3.452324	-0.256553	-2.470675	-0.189751	-1.316485	-0.21076	-0.886244	-2.066941	-1.879128	-0.778535	-0.312093
-0.551547	-1.930848	-1.335264	-1.92012	-2.501545	-3.413926	-0.231821	-2.400396	-0.127257	-1.291503	-0.217715	-0.884317	-2.085229	-1.922617	-0.828251	-0.378133
-0.635238	-2.016547	-1.402406	-1.9703	-2.590784	-3.520349	-0.331119	-2.431882	-0.310822	-1.353297	-0.374563	-1.017589	-1.878331	-1.68475	-0.602238	-0.200252
-0.384214	-1.736845	-1.158624	-1.78968	-2.566133	-3.508767	-0.343184	-2.410534	-0.303057	-1.338358	-0.264371	-0.974005	-2.207453	-2.050509	-0.960312	-0.469569
-0.428371	-1.805047	-1.180468	-1.856202	-2.441996	-3.394681	-0.163516	-2.365194	-0.316149	-1.400342	-0.341733	-1.033236	-2.084128	-1.944019	-0.892697	-0.393548
-0.334677	-1.793854	-1.133879	-1.836014	-2.273381	-3.247827	0.098968	-2.271399	-0.198914	-1.365543	-0.317251	-0.962521	-1.940013	-1.811297	-0.748797	-0.290522
-0.430556	-1.926519	-1.261866	-1.905845	-2.327185	-3.306464	-0.031357	-2.291694	0.100267	-1.232701	0.00278700000000001	-0.683523	-1.848169	-1.683841	-0.658975	-0.199238
-0.265009	-1.720497	-1.09868	-1.690329	-2.392858	-3.321866	-0.138256	-2.299198	0.183957	-1.195429	0.084269	-0.624235	-2.002596	-1.836781	-0.85104	-0.315583
-0.196857	-1.662341	-1.034091	-1.593511	-2.273381	-3.134915	0.03632	-2.194128	0.148003	-1.172928	0.070912	-0.64715	-1.855696	-1.728869	-0.702793	-0.235791
-0.225168	-1.68615	-1.019112	-1.590661	-2.153238	-3.053319	0.200157	-2.11956	-0.051136	-1.256972	-0.117162	-0.869369	-1.70623	-1.533062	-0.503137	-0.073511
-0.060537	-1.627291	-0.913601	-1.510588	-2.112335	-3.041055	0.224606	-2.107369	0.159884	-1.147762	0.132302	-0.663606	-1.631616	-1.488501	-0.390739	-0.00839300000000001
0.188342	-1.324484	-0.685943	-1.311071	-2.167097	-3.171525	0.193114	-2.131699	0.37552	-1.074303	0.316321	-0.530479	-1.821931	-1.728018	-0.606483	-0.185779
0.232769	-1.306287	-0.654359	-1.277954	-2.002418	-3.005334	0.407675	-2.029725	0.471145	-1.027289	0.348344	-0.459765	-1.520709	-1.42436	-0.31456	0.069247
0.180181	-1.274654	-0.632425	-1.226609	-2.10023	-3.102032	0.257242	-2.024742	0.510229	-0.990526	0.323574	-0.496677	-1.531638	-1.426061	-0.362775	0.079349
0.2035	-1.228692	-0.621969	-1.195688	-1.917562	-2.945805	0.490027	-1.878782	0.576595	-0.904415	0.49335	-0.400647	-1.394021	-1.337828	-0.21898	0.147149
0.311262	-1.127911	-0.471469	-1.127763	-1.873026	-2.931588	0.509113	-1.847561	0.549364	-0.917403	0.51052	-0.402675	-1.37538	-1.338958	-0.20504	0.141946
0.268819	-1.215089	-0.507896	-1.21187	-1.851323	-2.966433	0.547091	-1.836406	0.390268	-1.027529	0.283401	-0.628828	-1.306236	-1.294076	-0.172007	0.163735
0.343392	-1.106342	-0.46604	-1.178819	-1.779509	-2.928521	0.629772	-1.827921	0.525393	-1.00312	0.319108	-0.628271	-1.39002	-1.445943	-0.267587	0.085833
0.234957	-1.27189	-0.517881	-1.211248	-1.787346	-2.931588	0.630005	-1.830577	0.700375	-0.966079	0.539849	-0.440388	-1.402379	-1.469491	-0.381938	0.048115
0.351657	-1.182718	-0.41029	-1.127763	-1.759586	-2.876124	0.643035	-1.82294	0.67634	-0.96659	0.486812	-0.516325	-1.199982	-1.27348	-0.197152	0.174866
0.301175	-1.265302	-0.438771	-1.145636	-1.598797	-2.725893	0.873146	-1.70966	0.770302	-0.90599	0.608892	-0.385004	-1.148016	-1.162875	-0.090913	0.275144
0.520463	-1.016784	-0.220491	-0.943839	-1.545408	-2.670839	0.905746	-1.64985	0.827953	-0.856999	0.689285	-0.309504	-1.274789	-1.295345	-0.20504	0.189004
0.599675	-0.941874	-0.146151	-0.876592	-1.470365	-2.670026	0.944507	-1.623349	1.111369	-0.733642	0.974042	-0.061188	-0.981076	-0.94424	0.093619	0.430587
0.371199	-1.168202	-0.375176	-1.045288	-1.437261	-2.649635	1.014809	-1.596828	1.053807	-0.771618	0.869217	-0.158812	-0.946652	-0.921629	0.125526	0.448931
0.439529	-1.048763	-0.273747	-0.977956	-1.524658	-2.76704	0.85704	-1.63592	1.17013	-0.722643	1.037475	-0.026294	-1.041164	-1.032386	-0.034749	0.365883
0.654177	-0.82946	-0.075774	-0.80926	-1.435553	-2.691698	0.940554	-1.574293	1.16734	-0.734846	0.96069	-0.102168	-1.229284	-1.229747	-0.177893	0.254126
0.559096	-0.960333	-0.131255	-0.876714	-1.244221	-2.55452	1.163194	-1.481949	1.27858	-0.686151	1.063251	-0.026512	-1.141292	-1.098297	-0.05409	0.333581
0.633012	-0.830812	-0.0587350000000001	-0.809222	-1.395635	-2.76704	0.940554	-1.557106	1.275933	-0.698523	0.933502	-0.140386	-1.194711	-1.163203	-0.123137	0.313735
0.66568	-0.819609	-0.062759	-0.808708	-1.467844	-2.855726	0.847726	-1.605395	1.49994	-0.611857	1.234742	0.031435	-1.164586	-1.163511	-0.119549	0.265756
0.529306	-0.933705	-0.192447	-0.893604	-1.406647	-2.780674	0.956642	-1.58743	1.29986	-0.722818	1.054563	-0.177872	-1.017895	-1.054273	0.0350280000000001	0.379484
0.599675	-0.887677	-0.054485	-0.842993	-1.348602	-2.709677	0.965759	-1.591467	1.275933	-0.747551	1.044241	-0.197165	-1.038123	-1.074933	0.0202789999999999	0.377061
0.638405	-0.887677	0.00535299999999994	-0.842993	-1.332107	-2.746967	0.921084	-1.63592	1.577498	-0.599615	1.484605	0.183851	-1.342071	-1.424806	-0.311673	0.121124
0.565008	-1.001681	-0.062759	-0.926849	-1.17361	-2.592783	1.221754	-1.535964	1.27858	-0.796508	1.016279	-0.234944	-1.210568	-1.294429	-0.161963	0.21728
0.537892	-1.014417	-0.054485	-0.927328	-1.228354	-2.672327	1.158866	-1.538361	1.35114	-0.758784	1.119938	-0.176363	-1.063341	-1.141765	-0.011394	0.345954
0.723749	-0.801121	0.076186	-0.774987	-1.277052	-2.656878	1.075204	-1.526337	1.016992	-0.917902	0.657542	-0.553585	-1.021457	-1.097404	0.062898	0.377061
0.650777	-0.809477	0.0612510000000001	-0.792283	-1.202372	-2.578686	1.211945	-1.496098	1.135615	-0.808967	0.864242	-0.347947	-1.175935	-1.251525	-0.065859	0.234821
0.682983	-0.783734	0.108395	-0.808891	-1.270538	-2.67474	1.150341	-1.551482	1.258625	-0.782853	1.028287	-0.270549	-1.098144	-1.139243	0.026097	0.294974
0.518568	-0.941874	-0.03954	-0.944245	-1.18345	-2.652924	1.256964	-1.593008	1.16734	-0.906185	0.852203	-0.404184	-1.137893	-1.184461	-0.00277400000000005	0.264163
0.51154	-0.895427	-0.00876199999999999	-0.926348	-1.218889	-2.673626	1.270954	-1.655362	1.196395	-0.943111	0.841933	-0.404574	-1.145618	-1.207828	-0.04647	0.235474
0.411465	-0.952252	-0.096804	-0.994798	-1.235169	-2.689492	1.223476	-1.687309	1.077482	-1.016322	0.698259	-0.535875	-1.172849	-1.251671	-0.0813539999999999	0.204004
0.488003	-0.894441	-0.011126	-0.977156	-1.235383	-2.673626	1.225955	-1.708288	1.207524	-0.931304	0.971028	-0.291257	-1.233482	-1.295159	-0.0890479999999999	0.186949
0.506808	-0.912073	-0.040613	-0.97772	-1.374422	-2.878639	1.055321	-1.802311	1.154178	-0.979805	0.819378	-0.423318	-1.329992	-1.38253	-0.139326	0.12552
0.619032	-0.761718	0.054585	-0.910498	-1.415325	-2.903022	0.975754	-1.853083	1.122235	-1.016026	0.672417	-0.535869	-1.312511	-1.360584	-0.131289	0.110626
0.334266	-1.063226	-0.218359	-1.095661	-1.332107	-2.78496	1.113931	-1.820149	1.29986	-0.930646	0.896836	-0.366682	-1.280801	-1.316468	-0.123003	0.144396
0.305049	-1.053539	-0.188555	-1.028052	-1.519847	-2.934237	0.86857	-1.871254	1.077482	-0.967666	0.694548	-0.498342	-1.510513	-1.555709	-0.362505	-0.00507599999999997
0.310119	-1.0219	-0.192447	-0.994717	-1.50574	-2.863268	0.859753	-1.788269	1.105192	-0.892903	0.796585	-0.401753	-1.325558	-1.316017	-0.123137	0.168904
0.307067	-1.018993	-0.171444	-1.01111	-1.405003	-2.709677	1.030009	-1.662409	1.006095	-0.882196	0.624016	-0.460926	-1.304896	-1.29365	-0.067309	0.210603
0.252293	-1.058921	-0.269038	-1.078812	-1.589858	-2.895526	0.861024	-1.747931	0.986059	-0.86891	0.654408	-0.496255	-1.453389	-1.46884	-0.262385	0.090205
0.163369	-1.085578	-0.35005	-1.11232	-1.70386	-2.976953	0.696613	-1.80754	1.019848	-0.881283	0.647341	-0.478418	-1.497967	-1.55592	-0.30824	0.032513
0.028027	-1.174937	-0.457866	-1.196099	-1.771942	-3.047532	0.65198	-1.863534	0.890339	-0.955395	0.579584	-0.554645	-1.612192	-1.663475	-0.45026	-0.053167
0.117926	-1.095882	-0.390025	-1.17939	-1.713779	-3.01057	0.715657	-1.854231	0.646986	-1.101028	0.279226	-0.83411	-1.682406	-1.749803	-0.484131	-0.123854
0.180638	-1.081669	-0.38598	-1.179462	-1.715744	-3.03273	0.682454	-1.876587	0.623454	-1.125506	0.254684	-0.834305	-1.836434	-1.879603	-0.66106	-0.256504
-0.0192009999999999	-1.277094	-0.542091	-1.34644	-1.730115	-3.103649	0.696333	-1.959413	0.717425	-1.137726	0.357633	-0.741268	-1.807688	-1.879437	-0.622875	-0.240964
-0.051814	-1.316416	-0.613732	-1.363048	-1.725315	-3.083618	0.702124	-2.018762	0.712365	-1.222576	0.260311	-0.871012	-1.692431	-1.685873	-0.496983	-0.161251
-0.261728	-1.533728	-0.774995	-1.495707	-1.842766	-3.246787	0.522039	-2.145426	0.790761	-1.234488	0.448035	-0.722502	-1.793779	-1.793395	-0.580972	-0.241573
-0.161329	-1.464547	-0.680591	-1.412434	-1.827596	-3.214003	0.498097	-2.158012	0.629404	-1.307314	0.315988	-0.833225	-1.855696	-1.857971	-0.599849	-0.268394
-0.070789	-1.406452	-0.594773	-1.346243	-1.825154	-3.176432	0.498097	-2.148768	0.634273	-1.318199	0.331547	-0.833517	-1.74488	-1.705245	-0.409744	-0.152904
0.028027	-1.284767	-0.514671	-1.279459	-1.715344	-3.044107	0.681442	-2.077958	0.688905	-1.270211	0.327298	-0.796738	-1.867089	-1.771813	-0.515638	-0.189332
-0.203175	-1.51785	-0.741329	-1.428987	-1.755608	-3.046744	0.663557	-2.09731	0.67634	-1.305728	0.282154	-0.850954	-1.613463	-1.487892	-0.158593	0.022632
-0.175842	-1.485758	-0.749013	-1.428485	-1.989729	-3.274129	0.31879	-2.223278	0.589645	-1.354785	0.247915	-0.852752	-2.055158	-2.026753	-0.626884	-0.309131
-0.301379	-1.550693	-0.835578	-1.479165	-2.010071	-3.305563	0.326195	-2.268231	0.432113	-1.413878	0.190298	-0.980891	-2.083875	-2.04792	-0.626884	-0.324504
-0.25758	-1.465623	-0.782823	-1.445527	-2.213336	-3.531158	0.095322	-2.392199	0.229541	-1.535047	-0.06342	-1.185354	-2.094371	-2.029431	-0.614791	-0.346464
-0.320183	-1.585759	-0.866928	-1.561937	-2.178762	-3.511401	0.163726	-2.399769	0.250227	-1.546967	-0.077951	-1.148559	-1.974479	-1.899785	-0.456533	-0.248517
-0.305277	-1.550693	-0.881496	-1.561937	-2.072669	-3.399544	0.32024	-2.346225	0.348569	-1.522714	0.050155	-1.037816	-2.253056	-2.136315	-0.725713	-0.425974
-0.399299	-1.690728	-1.035568	-1.64467	-2.116728	-3.403278	0.203952	-2.376224	0.333333	-1.521963	0.046216	-1.018623	-2.191367	-2.135753	-0.709508	-0.423481
-0.451387	-1.678332	-1.055594	-1.660464	-2.158181	-3.365982	0.184867	-2.384609	0.083101	-1.642341	-0.19387	-1.240338	-2.187545	-2.113498	-0.715572	-0.420697
-0.556914	-1.777314	-1.143426	-1.694324	-2.114981	-3.320814	0.268669	-2.393838	0.10103	-1.618581	-0.166894	-1.222081	-2.2769	-2.17843	-0.793348	-0.50204
-0.472181	-1.731307	-1.101233	-1.643761	-2.185213	-3.36127	0.181312	-2.448268	0.05864	-1.677111	-0.176979	-1.257509	-2.23927	-2.112519	-0.687894	-0.434
-0.51565	-1.833756	-1.213484	-1.710432	-2.157734	-3.343015	0.20027	-2.474153	0.294335	-1.556656	0.144475	-0.97843	-2.232307	-2.028961	-0.625426	-0.407213
-0.567579	-1.907652	-1.266538	-1.726341	-2.210147	-3.377548	0.174462	-2.515825	0.065187	-1.725812	-0.329639	-1.313641	-2.173907	-1.985745	-0.517822	-0.342891
-0.755364	-2.066281	-1.414451	-1.791778	-2.272455	-3.379509	0.055907	-2.516684	0.168798	-1.677405	-0.090529	-1.12897	-2.294968	-2.112519	-0.645734	-0.434
-0.866072	-2.139102	-1.483415	-1.856632	-2.355372	-3.420918	-0.035293	-2.554995	0.00819300000000001	-1.748025	-0.244143	-1.255816	-2.317766	-2.093018	-0.671668	-0.407213
-0.975273	-2.252386	-1.620207	-1.940531	-2.338322	-3.396763	0.00530999999999998	-2.54998	-0.130957	-1.784679	-0.360248	-1.367405	-2.368245	-2.134666	-0.682163	-0.452352
-0.761762	-1.993947	-1.40473	-1.775739	-2.368148	-3.452324	0.00530999999999998	-2.56661	-0.18122	-1.855412	-0.431733	-1.403341	-2.523656	-2.262696	-0.789206	-0.547123
-0.644124	-1.959253	-1.385848	-1.726039	-2.354501	-3.452324	0.042997	-2.574921	-0.033359	-1.807977	-0.203451	-1.201672	-2.560286	-2.285206	-0.892697	-0.59739
-1.052915	-2.287898	-1.709949	-1.989418	-2.555102	-3.672689	-0.219173	-2.685382	0.142038	-1.7834	-0.055185	-1.03386	-2.358559	-2.071773	-0.694722	-0.469569
-0.925807	-2.187751	-1.639752	-1.9066	-2.596857	-3.677273	-0.285886	-2.697126	-0.068898	-1.878601	-0.28942	-1.219437	-2.464157	-2.157704	-0.835913	-0.551363
-1.03056	-2.235754	-1.693569	-1.924014	-2.761935	-3.857747	-0.515658	-2.763335	-0.089621	-1.831542	-0.265385	-1.183432	-2.699938	-2.369947	-1.055	-0.722175
-0.858437	-2.077697	-1.57525	-1.776241	-2.710185	-3.749632	-0.403879	-2.712839	-0.351944	-1.938345	-0.571006	-1.40407	-2.679407	-2.386455	-0.945106	-0.695309
-0.874855	-2.097802	-1.570862	-1.775435	-2.600786	-3.636566	-0.256553	-2.67532	-0.363662	-1.925564	-0.590536	-1.402911	-2.745519	-2.474216	-1.027202	-0.778682
-0.923542	-2.187751	-1.668144	-1.840349	-2.674311	-3.723354	-0.362177	-2.723067	-0.483366	-1.995412	-0.766869	-1.563473	-2.620651	-2.304856	-0.929277	-0.701679
-1.156912	-2.395127	-1.863606	-2.021044	-2.736009	-3.706553	-0.405472	-2.724	-0.304797	-1.865733	-0.505408	-1.309701	-2.862605	-2.601565	-1.223828	-0.874433
-1.134215	-2.396111	-1.858995	-1.954989	-2.907599	-3.835678	-0.651857	-2.767107	-0.320563	-1.827871	-0.417411	-1.230473	-2.62869	-2.387165	-0.991348	-0.712742
-1.170738	-2.415569	-1.901258	-2.003634	-2.813467	-3.655627	-0.485329	-2.642191	-0.536601	-1.83959	-0.723454	-1.448152	-2.648078	-2.405721	-0.954641	-0.676547
-0.938341	-2.19781	-1.726308	-1.858484	-2.811968	-3.567566	-0.415204	-2.560014	-0.368789	-1.663163	-0.467076	-1.179491	-2.636237	-2.385687	-0.940585	-0.662616
-0.771604	-2.015674	-1.618523	-1.773874	-2.649896	-3.450248	-0.188354	-2.485517	-0.51892	-1.748665	-0.81091	-1.45883	-2.600412	-2.345273	-0.912157	-0.634566
-0.79002	-2.003589	-1.669349	-1.792827	-2.76671	-3.584947	-0.329057	-2.54998	-0.31295	-1.663163	-0.557033	-1.252716	-2.608142	-2.3486	-0.986859	-0.66241
-0.824592	-1.999607	-1.642006	-1.822213	-2.93946	-3.819838	-0.552798	-2.657862	-0.216595	-1.652473	-0.44146	-1.1643	-2.546607	-2.30388	-0.958308	-0.651959
-0.858437	-2.060994	-1.721996	-1.841396	-2.677077	-3.555162	-0.225558	-2.557384	-0.31376	-1.724077	-0.580855	-1.275362	-2.476423	-2.218582	-0.916527	-0.620447
-0.639784	-1.839002	-1.454917	-1.675006	-2.764337	-3.657476	-0.366499	-2.634783	-0.386309	-1.81662	-0.622324	-1.361083	-2.339786	-2.027313	-0.743053	-0.496262
-0.584052	-1.907652	-1.445349	-1.692224	-2.676909	-3.633364	-0.231821	-2.596218	-0.345425	-1.773136	-0.630114	-1.295358	-2.47448	-2.170152	-0.800496	-0.595647
-0.346864	-1.683061	-1.240289	-1.525179	-2.675912	-3.619447	-0.193541	-2.556539	-0.2132	-1.677678	-0.538485	-1.185104	-2.412153	-2.087986	-0.739756	-0.537452
-0.36552	-1.706311	-1.308601	-1.545047	-2.651342	-3.569659	-0.151832	-2.5192	-0.045095	-1.568147	-0.32748	-0.997309	-2.346224	-2.025455	-0.687894	-0.492934
-0.442483	-1.770995	-1.331053	-1.591753	-2.701263	-3.604687	-0.240746	-2.474153	-0.065889	-1.544436	-0.389312	-1.071528	-2.311299	-2.027813	-0.682163	-0.480971
-0.534348	-1.849391	-1.425694	-1.644041	-2.682497	-3.538404	-0.16969	-2.360492	0.062708	-1.386836	-0.151221	-0.844594	-2.166418	-1.901107	-0.626802	-0.377302
-0.349145	-1.680339	-1.25948	-1.509755	-2.764337	-3.546917	-0.30463	-2.273182	-0.176833	-1.410608	-0.493461	-1.102935	-2.018269	-1.728018	-0.46511	-0.26394
-0.121485	-1.465623	-1.101233	-1.361057	-2.676909	-3.486513	-0.188354	-2.121448	-0.136611	-1.293746	-0.458872	-1.000677	-2.219905	-1.943707	-0.698787	-0.375539
0.000577999999999995	-1.344591	-0.988357	-1.310234	-2.587221	-3.397735	-0.06313	-2.002612	-0.059721	-1.255651	-0.396162	-0.959521	-1.923336	-1.617879	-0.358205	-0.14864
0.00337199999999993	-1.315108	-1.025291	-1.296096	-2.571955	-3.382889	-0.05422	-1.954498	0.070797	-1.135093	-0.172333	-0.755825	-2.291727	-2.008108	-0.786492	-0.408098
-0.053752	-1.29194	-1.046099	-1.32675	-2.687003	-3.434142	-0.14423	-1.836406	0.067682	-0.977236	-0.220201	-0.737981	-2.08066	-1.793645	-0.5848	-0.235791
-0.376504	-1.641177	-1.316437	-1.577427	-2.590645	-3.300377	0.00494500000000009	-1.753541	0.00609399999999999	-0.90599	-0.331594	-0.815721	-1.988183	-1.727614	-0.522127	-0.199238
-0.194645	-1.44955	-1.098914	-1.460816	-2.642315	-3.327219	-0.067501	-1.787201	-0.033359	-0.953408	-0.308356	-0.814081	-2.011302	-1.812561	-0.551327	-0.244402
-0.007965	-1.301853	-0.927353	-1.345478	-2.58325	-3.270679	-0.00511300000000001	-1.752286	-0.000225999999999948	-0.939962	-0.272227	-0.79261	-2.041169	-1.872505	-0.645995	-0.316368
0.129132	-1.212806	-0.820991	-1.278868	-2.454945	-3.154286	0.187309	-1.634384	-0.148706	-1.002608	-0.599467	-1.055635	-1.843811	-1.679667	-0.448216	-0.192457
0.167252	-1.192024	-0.808566	-1.262477	-2.334557	-3.06434	0.289464	-1.540327	0.00299300000000002	-0.902979	-0.433599	-0.903315	-1.722147	-1.552279	-0.334603	-0.068022
0.190401	-1.141868	-0.770528	-1.194954	-2.437502	-3.106334	0.217588	-1.518784	0.055728	-0.856259	-0.41966	-0.889178	-1.788732	-1.664437	-0.493212	-0.143553
0.259108	-1.078868	-0.708146	-1.11232	-2.381786	-3.079892	0.27525	-1.484467	0.279339	-0.734182	-0.138156	-0.64783	-1.568836	-1.469226	-0.269929	0.017791
0.305049	-1.014417	-0.590397	-1.044587	-2.238524	-2.916495	0.45394	-1.365011	0.31225	-0.69653	-0.074436	-0.646066	-1.417881	-1.31576	-0.090913	0.131548
0.553669	-0.789407	-0.371151	-0.876802	-2.403388	-3.142663	0.209497	-1.394208	0.471714	-0.585201	0.135165	-0.476152	-1.250211	-1.119868	0.078368	0.304626
0.476276	-0.900917	-0.445204	-0.977868	-2.084521	-2.842884	0.602047	-1.190387	0.658386	-0.46227	0.284774	-0.3826	-1.342905	-1.273497	-0.104588	0.189004
0.522413	-0.849359	-0.426177	-0.960952	-2.153568	-2.954304	0.505749	-1.215583	0.846117	-0.388346	0.510462	-0.213424	-1.328869	-1.295345	-0.123928	0.189004
0.460693	-0.850656	-0.409235	-0.960952	-2.15589	-2.992764	0.436814	-1.252688	0.843406	-0.463857	0.42375	-0.329119	-1.285305	-1.271498	-0.110108	0.163735
0.472798	-0.823656	-0.390025	-0.927458	-2.092704	-3.005334	0.502939	-1.254511	0.949421	-0.463152	0.681441	-0.158285	-1.302955	-1.295283	-0.17026	0.172578
0.675379	-0.610015	-0.137622	-0.724567	-1.895038	-2.842884	0.729308	-1.199063	0.809684	-0.636321	0.442804	-0.366682	-1.274789	-1.207683	-0.112191	0.187601
0.834772	-0.533559	-0.017869	-0.639674	-1.732468	-2.709677	0.90163	-1.136666	1.004401	-0.549734	0.639719	-0.195909	-1.456088	-1.426	-0.320452	0.031688
0.5099	-0.769255	-0.224261	-0.825996	-1.601864	-2.616187	1.018602	-1.021062	1.28637	-0.425779	0.999324	0.110076	-1.173906	-1.076139	-0.027065	0.26765
0.735513	-0.644512	-0.094812	-0.707574	-1.622733	-2.632706	0.99686	-1.000352	1.164602	-0.501444	0.729242	-0.102474	-1.370951	-1.317074	-0.258856	0.094982
0.4956	-0.809477	-0.250182	-0.826153	-1.648532	-2.673626	0.929295	-1.031367	1.198997	-0.47696	0.877778	0.0115970000000001	-1.170651	-1.098353	-0.034749	0.269845
0.548727	-0.709964	-0.166284	-0.740908	-1.452002	-2.48282	1.1335	-0.931314	1.043027	-0.526508	0.670458	-0.196878	-1.278241	-1.228902	-0.118768	0.20966
0.671904	-0.571091	0.0291809999999999	-0.588499	-1.37682	-2.406167	1.268571	-0.877195	0.961507	-0.52658	0.51087	-0.291059	-1.06093	-1.009312	0.153518	0.418359
0.772733	-0.459885	0.0893699999999999	-0.503192	-1.339129	-2.40811	1.270954	-0.825352	1.109138	-0.427424	0.589826	-0.253852	-1.19405	-1.18535	-0.018252	0.336943
0.608635	-0.603966	-0.053752	-0.605104	-1.320349	-2.368482	1.30786	-0.769504	1.318451	-0.278752	0.805506	-0.045542	-1.128285	-1.076365	0.02735	0.397437
0.657793	-0.627276	-0.094812	-0.622594	-1.519827	-2.579283	0.99345	-0.834901	1.376998	-0.191701	0.943652	0.030512	-1.149496	-1.141496	-0.011394	0.378206
0.691374	-0.533559	-0.019846	-0.571294	-1.480134	-2.500884	1.100207	-0.787077	0.98765	-0.3905	0.455541	-0.404499	-1.185877	-1.207899	-0.073414	0.350122
0.626576	-0.617812	-0.0743739999999999	-0.638547	-1.444845	-2.484664	1.166996	-0.790191	1.172974	-0.30324	0.723338	-0.215753	-1.174934	-1.185898	-0.04647	0.347886
0.808544	-0.458311	0.0874279999999998	-0.48591	-1.498176	-2.618859	1.041238	-0.891314	1.140752	-0.3905	0.613155	-0.329188	-1.10955	-1.120207	0.035502	0.382446
0.706152	-0.491093	0.036532	-0.502626	-1.390549	-2.542209	1.150341	-0.908867	1.151702	-0.464873	0.616533	-0.347072	-1.175935	-1.141973	-0.027065	0.347208
0.667095	-0.511593	0.0384009999999999	-0.536662	-1.374192	-2.504035	1.220383	-0.935172	1.3318	-0.440062	0.935464	-0.102068	-1.312212	-1.271142	-0.149583	0.232057
0.671904	-0.58678	0.0102100000000001	-0.537098	-1.435172	-2.67474	1.046664	-1.035134	1.371692	-0.452403	0.982324	-0.064341	-1.283089	-1.206048	-0.0647739999999999	0.280476
0.850912	-0.423764	0.183817	-0.434647	-1.435172	-2.693985	1.091382	-1.089004	1.44902	-0.477149	1.044241	-0.045129	-1.557572	-1.510458	-0.295733	0.088653
0.590795	-0.677357	-0.021787	-0.639052	-1.28694	-2.579833	1.285066	-1.079545	1.093548	-0.723469	0.494237	-0.516438	-1.478724	-1.447511	-0.174019	0.139144
0.37452	-0.789407	-0.156642	-0.758254	-1.3674	-2.653629	1.243096	-1.147743	1.25734	-0.674158	0.784391	-0.329188	-1.411961	-1.402916	-0.123137	0.200967
0.239928	-0.972216	-0.309712	-0.859938	-1.303855	-2.557884	1.339322	-1.173821	1.284535	-0.649841	0.843949	-0.2522	-1.63207	-1.616661	-0.37023	0.00752200000000003
0.559096	-0.63011	-0.0267090000000001	-0.656639	-1.368619	-2.581569	1.198797	-1.179792	1.262719	-0.637039	0.837345	-0.27273	-1.333195	-1.317028	0.019448	0.26765
0.490511	-0.713207	-0.068765	-0.707059	-1.409041	-2.637664	1.144929	-1.21533	1.274116	-0.63653	0.840846	-0.271684	-1.444699	-1.378809	-0.120645	0.182932
0.576589	-0.594115	0.00324900000000006	-0.622658	-1.329704	-2.539141	1.33339	-1.191979	1.265867	-0.637547	0.75069	-0.271205	-1.510513	-1.446675	-0.161963	0.121652
0.350295	-0.801849	-0.226161	-0.740908	-1.486151	-2.657257	1.114593	-1.287004	1.209935	-0.710433	0.696167	-0.347533	-1.495575	-1.381747	-0.138954	0.137943
0.247654	-0.888904	-0.299082	-0.775353	-1.576091	-2.711037	1.06336	-1.32745	1.164602	-0.759761	0.655331	-0.385696	-1.537683	-1.403877	-0.154662	0.122809
0.269997	-0.907175	-0.321359	-0.774479	-1.685515	-2.807266	0.893373	-1.374442	1.122235	-0.747682	0.678491	-0.348115	-1.617353	-1.443398	-0.224601	0.0716249999999999
0.326214	-0.870416	-0.237554	-0.707578	-1.683318	-2.768868	0.918313	-1.347735	1.061515	-0.772338	0.564792	-0.385664	-1.556122	-1.360584	-0.065224	0.127903
0.191424	-0.963042	-0.399554	-0.791495	-1.626691	-2.762127	1.040338	-1.314064	1.138158	-0.711088	0.657587	-0.310306	-1.618619	-1.38241	-0.127776	0.108411
0.217188	-0.842279	-0.360318	-0.70739	-1.832069	-2.91968	0.790437	-1.383097	0.97998	-0.796943	0.372377	-0.497854	-1.633007	-1.402758	-0.090913	0.099393
0.0970939999999999	-0.912073	-0.486837	-0.758108	-1.899593	-2.95688	0.668412	-1.426332	0.966599	-0.772233	0.379941	-0.498342	-1.682406	-1.469003	-0.14642	0.081034
0.015144	-0.962708	-0.527153	-0.809038	-1.959699	-2.953545	0.677026	-1.45855	0.8746	-0.784443	0.339881	-0.554645	-1.772665	-1.599555	-0.220386	0.031688
-0.0034289999999999	-0.998576	-0.581377	-0.859435	-1.911241	-2.918544	0.743077	-1.48748	0.915888	-0.734182	0.495876	-0.439966	-1.87439	-1.681506	-0.350809	-0.0554160000000001
-0.00380000000000003	-1.016784	-0.57348	-0.876432	-1.964093	-2.9765	0.638299	-1.534251	0.877296	-0.759899	0.417394	-0.442152	-1.918661	-1.728967	-0.397314	-0.082661
-0.157484	-1.126733	-0.732734	-0.9946	-1.910827	-2.876124	0.771789	-1.465564	0.918989	-0.733922	0.425689	-0.438982	-1.76671	-1.555677	-0.204054	0.065433
-0.182271	-1.105172	-0.74356	-0.994526	-2.114462	-3.086609	0.469712	-1.522692	0.815558	-0.771195	0.277215	-0.534285	-1.795609	-1.533627	-0.327505	0.026846
-0.226007	-1.155298	-0.793952	-0.994761	-2.228861	-3.13791	0.358361	-1.54455	0.696557	-0.784647	0.223451	-0.554267	-2.12158	-1.92173	-0.694479	-0.25771
-0.064795	-1.01562	-0.680591	-0.910387	-2.227105	-3.104388	0.398439	-1.556332	0.465377	-0.954905	-0.061639	-0.815577	-2.261066	-2.028982	-0.812472	-0.367555
-0.0606810000000001	-1.074373	-0.730818	-0.97772	-2.208524	-3.12592	0.351844	-1.629614	0.504415	-1.003554	0.000575000000000006	-0.778205	-2.269952	-2.029671	-0.778989	-0.396594
-0.165428	-1.231103	-0.801959	-1.044797	-2.089052	-3.050221	0.546846	-1.663938	0.67068	-1.015851	0.147869	-0.666696	-2.151554	-1.879559	-0.603837	-0.299315
-0.372473	-1.431844	-0.989617	-1.19607	-2.053939	-3.025693	0.636972	-1.684046	0.61055	-1.125349	0.004521	-0.797144	-2.074344	-1.814011	-0.545362	-0.280321
-0.357746	-1.356573	-0.939675	-1.162332	-2.162673	-3.08783	0.464238	-1.724651	0.673286	-1.087004	0.195444	-0.663606	-2.086662	-1.813587	-0.541101	-0.279355
-0.325999	-1.330702	-0.950443	-1.162712	-2.279695	-3.199843	0.31879	-1.742523	0.31225	-1.220406	-0.215198	-1.016157	-2.206329	-2.004309	-0.645734	-0.401216
-0.301379	-1.265302	-0.896054	-1.162481	-2.311893	-3.253104	0.297096	-1.757271	0.157578	-1.270406	-0.403524	-1.14857	-2.274079	-2.067692	-0.702193	-0.415403
-0.231592	-1.292595	-0.923318	-1.212921	-2.229406	-3.142663	0.436814	-1.740191	0.219744	-1.233746	-0.290667	-1.05623	-2.35302	-2.136399	-0.79798	-0.474447
-0.246802	-1.279806	-0.962913	-1.212873	-2.419351	-3.384951	0.179372	-1.89063	0.336479	-1.207763	-0.133491	-0.922912	-2.10301	-1.857119	-0.503137	-0.233082
-0.446183	-1.46994	-1.135156	-1.329768	-2.311005	-3.230522	0.307175	-1.831441	0.348569	-1.185632	-0.140288	-0.889882	-2.380304	-2.115083	-0.813169	-0.426739
-0.474242	-1.442888	-1.122453	-1.262662	-2.467149	-3.327219	0.095322	-1.87045	0.243413	-1.221501	-0.267631	-0.963424	-2.457265	-2.17843	-0.895785	-0.485815
-0.536301	-1.492392	-1.188937	-1.296335	-2.40291	-3.176432	0.213347	-1.799093	0.198683	-1.160083	-0.220201	-0.924972	-2.373386	-2.071773	-0.774468	-0.39183
-0.517587	-1.4755	-1.157893	-1.279586	-2.304749	-3.065188	0.32024	-1.746297	0.061604	-1.196972	-0.353545	-1.000237	-2.636244	-2.348408	-1.08848	-0.616986
-0.464988	-1.52326	-1.195157	-1.313104	-2.412483	-3.141984	0.215111	-1.792993	0.156838	-1.172669	-0.227464	-0.870134	-2.656112	-2.3488	-1.088798	-0.613504
-0.528184	-1.551853	-1.254449	-1.312313	-2.371399	-3.142663	0.228582	-1.828675	0.255698	-1.161343	-0.218693	-0.852832	-2.472038	-2.135998	-0.8581	-0.470463
-0.724652	-1.761736	-1.437833	-1.445736	-2.475987	-3.269854	0.063127	-1.939219	0.300207	-1.196972	-0.232143	-0.888892	-2.404168	-2.050902	-0.740695	-0.424345
-0.600427	-1.625276	-1.309589	-1.311763	-2.48215	-3.248821	0.105632	-1.971434	0.154898	-1.282601	-0.360392	-1.001013	-2.562434	-2.178982	-0.854857	-0.505245
-0.532344	-1.619569	-1.287692	-1.279298	-2.567288	-3.308128	0.063127	-2.03487	0.127331	-1.304534	-0.27478	-0.961221	-2.441216	-2.050224	-0.606483	-0.390923
-0.444786	-1.57317	-1.216429	-1.261378	-2.624044	-3.40038	0.025287	-2.104117	0.094344	-1.329672	-0.279717	-0.981838	-2.632307	-2.221426	-0.782685	-0.53745
-0.577493	-1.773358	-1.417689	-1.429472	-2.76456	-3.606733	-0.184194	-2.237049	-0.003525	-1.414398	-0.421835	-1.129911	-2.580215	-2.220782	-0.736658	-0.517382
-0.771604	-1.941366	-1.549806	-1.560981	-2.658214	-3.475724	-0.048604	-2.23544	0.088623	-1.390491	-0.364557	-1.093155	-2.349153	-1.984361	-0.471126	-0.324504
-0.97328	-2.144274	-1.740525	-1.743628	-2.841097	-3.644342	-0.257029	-2.31667	0.035005	-1.402203	-0.431733	-1.148082	-2.547982	-2.240727	-0.696722	-0.513619
-0.980919	-2.170002	-1.710666	-1.742054	-2.89296	-3.694543	-0.360768	-2.32863	0.109527	-1.316133	-0.150383	-0.886797	-2.626804	-2.285114	-0.778535	-0.549764
-0.909608	-2.114529	-1.672718	-1.693274	-2.654971	-3.377548	-0.026214	-2.168924	0.04081	-1.329672	-0.217802	-0.889178	-2.704033	-2.327356	-0.884928	-0.584953
-0.635238	-1.925539	-1.485803	-1.56029	-2.687003	-3.397735	-0.038345	-2.144564	-0.0742550000000001	-1.3523	-0.391078	-1.03444	-2.808862	-2.454552	-1.01355	-0.706894
-0.674592	-1.966311	-1.597953	-1.628421	-2.678324	-3.380423	-0.050207	-2.111717	-0.163512	-1.40194	-0.590536	-1.147583	-2.648869	-2.263058	-0.854029	-0.578649
-0.71614	-2.010744	-1.625543	-1.643761	-2.642315	-3.289801	-0.00511300000000001	-2.04415	0.061604	-1.269243	-0.394058	-0.962866	-2.380436	-1.942373	-0.579004	-0.389009
-0.971237	-2.182384	-1.825648	-1.776007	-2.576092	-3.176432	0.093716	-1.972285	0.00223399999999999	-1.293483	-0.505256	-1.037264	-2.182071	-1.748533	-0.414156	-0.278355
-0.868343	-2.116673	-1.727161	-1.676233	-2.660816	-3.282167	-0.038806	-1.976374	0.183957	-1.147099	-0.150383	-0.737981	-2.275598	-1.854507	-0.523452	-0.354136
-0.60481	-1.798927	-1.478499	-1.428485	-2.517725	-3.11439	0.149112	-1.862749	0.258549	-1.087004	-0.0957229999999999	-0.626616	-2.418922	-1.986873	-0.687749	-0.441377
-0.516882	-1.804122	-1.469171	-1.410573	-2.41484	-3.00209	0.319133	-1.756344	0.061604	-1.160374	-0.363187	-0.870134	-2.36122	-1.919524	-0.631343	-0.402297
-0.558781	-1.808144	-1.507938	-1.412885	-2.28965	-2.872118	0.483612	-1.686447	-0.189898	-1.305979	-0.778351	-1.221743	-2.428693	-2.047281	-0.748797	-0.495185
-0.602643	-1.833756	-1.540106	-1.412213	-2.544016	-3.13791	0.143441	-1.813579	0.16298	-1.111061	-0.336783	-0.850041	-2.430191	-2.04792	-0.753227	-0.464613
-0.618989	-1.835968	-1.549806	-1.395135	-2.47723	-3.074193	0.256571	-1.762977	0.246339	-1.0391	-0.248776	-0.74046	-2.094603	-1.726627	-0.428734	-0.230077
-0.567579	-1.778557	-1.482971	-1.312534	-2.768042	-3.304618	-0.119497	-1.856923	0.229284	-0.976519	-0.17094	-0.680229	-2.278089	-1.901107	-0.645822	-0.36271
-0.360799	-1.610228	-1.316756	-1.177294	-2.642061	-3.152122	0.092653	-1.695874	0.381015	-0.80743	0.105746	-0.403416	-2.331371	-1.965255	-0.698787	-0.393548
-0.246802	-1.489642	-1.23649	-1.078819	-2.707815	-3.160413	0.063127	-1.650669	0.190879	-0.906656	-0.259438	-0.666568	-2.213453	-1.835756	-0.545362	-0.280321
-0.18018	-1.445263	-1.180195	-1.061308	-2.403876	-2.875192	0.445734	-1.505166	0.32507	-0.833217	-0.150469	-0.573289	-2.1339	-1.726043	-0.447709	-0.213606
-0.263724	-1.492392	-1.248821	-1.061973	-2.441331	-2.914898	0.4084	-1.524892	0.402774	-0.808699	-0.11553	-0.573346	-2.062828	-1.660664	-0.405272	-0.181698
-0.372278	-1.516739	-1.266538	-1.094712	-2.521685	-2.935771	0.333421	-1.51797	0.387454	-0.771801	-0.142388	-0.610739	-1.964323	-1.617879	-0.32021	-0.134321
-0.229782	-1.38138	-1.178639	-1.01167	-2.521873	-2.901542	0.29961	-1.451476	0.321111	-0.783367	-0.174724	-0.647647	-1.826756	-1.506249	-0.239719	-0.065592
-0.058328	-1.197902	-1.007564	-0.875735	-2.378015	-2.804299	0.478933	-1.35025	0.34812	-0.746093	-0.146187	-0.665005	-1.85451	-1.51292	-0.3244	-0.079796
0.0397460000000001	-1.129836	-0.941909	-0.809224	-2.158181	-2.579833	0.729308	-1.192759	0.480182	-0.68492	-0.057638	-0.571846	-1.836598	-1.510002	-0.282152	-0.071416
0.285901	-0.887677	-0.728937	-0.622422	-2.347573	-2.80908	0.481713	-1.278314	0.667079	-0.562224	0.15154	-0.384718	-1.779245	-1.44736	-0.265768	-0.029788
0.178845	-1.023404	-0.831555	-0.656677	-2.22241	-2.729048	0.682833	-1.190387	0.871955	-0.477064	0.376093	-0.177703	-1.679458	-1.359858	-0.204316	0.042532
0.148184	-1.032831	-0.833357	-0.656317	-2.277336	-2.822907	0.580728	-1.207736	0.8746	-0.489274	0.367215	-0.23478	-1.752884	-1.512838	-0.335606	-0.031488
0.194611	-1.003368	-0.789589	-0.656564	-2.284022	-2.808492	0.536095	-1.168928	0.885706	-0.487394	0.460036	-0.212906	-1.431508	-1.163946	-0.065859	0.204004
0.328269	-0.925836	-0.602828	-0.537068	-2.015267	-2.542683	0.909792	-0.97095	0.880045	-0.452202	0.390132	-0.216074	-1.257377	-0.987036	0.16239	0.354524
0.487386	-0.79852	-0.490596	-0.485709	-1.959699	-2.521075	0.957968	-0.90506	1.010404	-0.377092	0.539662	-0.101114	-1.499164	-1.229806	-0.158617	0.157621
0.717899	-0.575418	-0.290712	-0.298047	-1.884569	-2.449391	1.025375	-0.813532	1.164602	-0.27885	0.632029	0.030666	-1.345408	-1.075263	0.052557	0.289852
0.649157	-0.61949	-0.349304	-0.297638	-1.855553	-2.447437	1.038155	-0.791682	1.302599	-0.179171	0.78021	0.106724	-1.245544	-0.966004	0.0739529999999999	0.363013
0.617164	-0.592729	-0.307653	-0.263698	-1.765027	-2.370332	1.088618	-0.745421	1.35304	-0.17942	0.858826	0.183556	-1.445519	-1.251525	-0.127776	0.187601
0.555424	-0.697606	-0.343473	-0.332288	-1.834741	-2.484096	1.010505	-0.790191	1.437414	-0.140956	1.023582	0.24187	-1.019898	-0.833904	0.37156	0.495428
0.640311	-0.612799	-0.197267	-0.28086	-1.806881	-2.502916	0.985246	-0.790942	1.332608	-0.203712	0.890065	0.088312	-1.218353	-1.009695	0.155743	0.345954
0.811789	-0.513202	-0.068765	-0.194642	-1.737083	-2.484664	1.057724	-0.738801	1.52145	-0.079304	1.065741	0.240573	-1.084751	-0.900031	0.264945	0.443457
0.924227	-0.378586	0.056762	-0.0913550000000001	-1.514422	-2.277109	1.308305	-0.587649	1.636487	-0.004244	1.15992	0.355655	-1.287806	-1.163946	-0.027065	0.266985
0.849295	-0.420595	-0.00865399999999994	-0.108158	-1.407387	-2.158974	1.477245	-0.48293	1.559051	-0.05465	0.912834	0.108208	-0.981076	-0.833874	0.292366	0.540654
0.877444	-0.393414	0.0653469999999999	-0.09144	-1.31559	-2.062624	1.568139	-0.391027	1.6722	0.070674	1.155463	0.301044	-0.914297	-0.788809	0.300288	0.570545
0.795749	-0.572574	-0.049862	-0.229144	-1.164338	-1.910671	1.781229	-0.30325	1.738648	0.108308	1.308151	0.414589	-0.870499	-0.744592	0.390296	0.635485
1.047527	-0.272528	0.255703	-0.038737	-1.360035	-2.16144	1.519535	-0.404258	1.768011	0.120992	1.292546	0.355645	-0.879086	-0.784178	0.337926	0.59938
1.006586	-0.324311	0.2217	-0.055849	-1.168779	-2.007366	1.735596	-0.312191	1.86653	0.158798	1.263267	0.359211	-0.691603	-0.56731	0.520065	0.749781
0.977083	-0.302054	0.2695	-0.02229	-1.264927	-2.123845	1.562931	-0.369881	2.004621	0.221742	1.425809	0.454707	-0.816961	-0.742843	0.368	0.633357
0.989921	-0.310429	0.270884	-0.00421300000000002	-1.109545	-1.949461	1.75559	-0.294305	1.847508	0.146115	1.266724	0.319894	-0.57244	-0.500526	0.630689	0.799108
1.053871	-0.150817	0.453481	0.0992430000000001	-1.052376	-1.950147	1.835737	-0.295666	1.814327	0.058085	1.18153	0.222526	-0.680409	-0.589215	0.575262	0.748532
1.188984	-0.0456350000000001	0.533903	0.170391	-1.093416	-2.066658	1.743342	-0.380736	1.833286	0.033008	1.209814	0.222526	-0.779598	-0.723027	0.500395	0.669297
0.741149	-0.484034	0.165842	-0.157558	-1.166574	-2.199132	1.69566	-0.50359	1.946227	-0.029422	1.346708	0.259704	-0.932352	-0.898882	0.335825	0.53758
0.643217	-0.574825	0.103449	-0.209683	-1.062301	-2.160597	1.786931	-0.558979	1.887885	-0.14207	1.160808	0.051015	-0.87599	-0.809846	0.411016	0.584939
0.654177	-0.535072	0.196986	-0.177199	-1.138402	-2.201141	1.67787	-0.609246	1.881345	-0.15447	1.22588	0.125848	-0.872443	-0.766539	0.465136	0.634901
0.746757	-0.453346	0.250307	-0.141774	-1.146637	-2.238717	1.653579	-0.597846	1.833286	-0.167023	1.164541	0.088682	-1.124465	-1.007991	0.200002	0.439638
0.745274	-0.470507	0.233366	-0.176136	-1.307343	-2.392558	1.432155	-0.63712	1.900289	-0.104573	1.301141	0.221586	-0.99371	-0.875669	0.301857	0.536141
0.788975	-0.491093	0.204734	-0.193781	-1.262826	-2.353163	1.503106	-0.615602	2.054917	-0.042138	1.480814	0.433322	-0.977797	-0.831632	0.34828	0.584939
0.628105	-0.508255	0.080001	-0.31391	-1.538747	-2.411396	1.292683	-0.264706	1.261149	0.171414	0.611267	-0.326956	-1.104107	-1.097714	0.112943	0.571138
0.015687	-0.670751	-0.250153	-0.706289	-1.880411	-2.542683	1.002015	0.330898	0.568778	0.538346	0.122993	-0.852807	-1.333195	-1.534609	-0.247459	0.508925
-0.847592	-1.058921	-0.64424	-1.329508	-2.070687	-2.633489	0.810453	0.774983	-0.04479	0.986945	-0.191871	-1.240422	-1.429165	-1.878186	-0.499105	0.488302
-1.252557	-1.245755	-0.791544	-1.743981	-2.410054	-3.01057	0.365833	0.944355	-0.489369	1.142109	-0.448568	-1.623675	-1.362357	-2.050902	-0.592563	0.493826
-1.600188	-1.562514	-0.947661	-2.088162	-2.224507	-2.935771	0.53069	0.850305	-0.661003	1.000816	-0.625042	-1.786793	-1.415723	-2.178092	-0.781182	0.39292
-1.632455	-1.849391	-1.033375	-2.218295	-2.188053	-2.989701	0.567421	0.430406	-0.653504	0.680183	-0.665437	-1.731733	-1.036548	-1.728967	-0.343229	0.603602
-1.587516	-1.98151	-1.044537	-2.250731	-2.137198	-2.936469	0.613413	0.082845	-0.746318	0.349207	-0.769094	-1.731733	-1.119256	-1.750733	-0.412757	0.476514
-1.463267	-2.058617	-1.033375	-2.234586	-2.212826	-2.994019	0.475252	-0.296329	-0.588089	0.234745	-0.508351	-1.386831	-1.253938	-1.771792	-0.485153	0.345954
-1.311496	-2.059824	-0.969109	-2.153182	-2.102893	-2.898662	0.644298	-0.485807	-0.464606	0.071288	-0.394504	-1.184694	-1.440162	-1.81475	-0.588225	0.217844
-1.085716	-1.953551	-0.896086	-2.039155	-2.331717	-3.163423	0.343419	-0.787066	-0.151571	0.020467	-0.111399	-0.815438	-1.25139	-1.447291	-0.316619	0.426339
-1.085716	-1.971493	-0.954522	-1.940956	-2.059109	-2.823608	0.746584	-0.801937	-0.078368	-0.11677	-0.284734	-0.833752	-1.163381	-1.16324	-0.095257	0.578008
-0.934364	-1.864916	-0.925323	-1.776885	-2.181413	-2.865309	0.530822	-0.952118	0.052864	-0.19191	-0.179203	-0.684817	-1.270376	-1.164083	-0.131289	0.558754
-0.82719	-1.771965	-0.916502	-1.661456	-2.076134	-2.67641	0.707239	-0.942697	0.065337	-0.178962	-0.21855	-0.590086	-1.608647	-1.36016	-0.401007	0.378206
-0.608988	-1.618313	-0.816914	-1.42962	-2.10192	-2.657257	0.649023	-0.97787	0.059836	-0.191912	-0.259438	-0.592017	-1.533763	-1.207828	-0.20504	0.476514
-0.529725	-1.601985	-0.85024	-1.445252	-2.020379	-2.544349	0.740817	-0.970329	0.250227	-0.079648	-0.00140999999999997	-0.348054	-1.711876	-1.315614	-0.331014	0.36068
-0.421933	-1.491036	-0.820892	-1.34644	-2.115812	-2.657257	0.668412	-1.094452	0.315322	-0.11709	-0.005868	-0.329119	-1.595572	-1.185217	-0.181352	0.393464
-0.512406	-1.563635	-0.943598	-1.395374	-2.245455	-2.805625	0.511479	-1.224033	0.363031	-0.20412	0.04319	-0.327536	-1.679458	-1.273066	-0.301017	0.282137
-0.459466	-1.492392	-0.879477	-1.279748	-2.274412	-2.789401	0.464238	-1.289717	0.327105	-0.328117	-0.028875	-0.383584	-1.644014	-1.227622	-0.182243	0.30848
-0.512406	-1.636854	-0.987662	-1.345425	-2.400599	-2.93927	0.368101	-1.457228	0.222583	-0.477064	-0.135991	-0.460323	-1.839494	-1.382309	-0.350652	0.175694
-0.350233	-1.486737	-0.824739	-1.1793	-2.284374	-2.847214	0.457235	-1.522967	0.16298	-0.599804	-0.200918	-0.569434	-1.952188	-1.469226	-0.369768	0.112269
-0.427363	-1.661569	-0.964155	-1.312922	-2.193333	-2.733683	0.63304	-1.504413	0.210497	-0.612522	-0.201145	-0.515677	-2.001542	-1.469514	-0.42809	0.093452
-0.416043	-1.620787	-0.977463	-1.312869	-2.164875	-2.712728	0.704316	-1.473836	0.239887	-0.625204	-0.284734	-0.535257	-2.015827	-1.442645	-0.492769	0.102838
-0.492039	-1.673377	-1.090153	-1.345891	-2.175433	-2.676712	0.663032	-1.440583	0.426139	-0.563644	-0.059663	-0.290528	-1.786525	-1.186047	-0.239629	0.301314
-0.338972	-1.478049	-0.962913	-1.195998	-2.143572	-2.600752	0.643627	-1.351878	0.568778	-0.440198	0.121025	-0.121357	-1.825208	-1.184461	-0.288842	0.312637
-0.411862	-1.552086	-1.040944	-1.212418	-2.132656	-2.538386	0.751348	-1.273943	0.685219	-0.315756	0.36686	0.069957	-1.973949	-1.317028	-0.393561	0.235474
-0.176474	-1.306447	-0.885311	-1.028193	-2.204102	-2.598622	0.632689	-1.268923	0.51971	-0.365838	0.1021	-0.121346	-2.022124	-1.338678	-0.393002	0.222721
-0.039959	-1.23276	-0.841302	-0.960971	-2.20919	-2.601473	0.60841	-1.255527	0.501585	-0.378211	0.027375	-0.197035	-1.779245	-1.075889	-0.10376	0.431414
-0.179742	-1.33844	-0.964155	-1.011151	-2.24047	-2.637664	0.660019	-1.269622	0.32507	-0.501972	-0.344034	-0.535917	-1.853296	-1.164083	-0.258856	0.333581
-0.171185	-1.344713	-0.987672	-1.028414	-2.349607	-2.714622	0.492125	-1.325812	0.545363	-0.390692	-0.021631	-0.253386	-1.939637	-1.317154	-0.424185	0.252608
-0.298342	-1.495465	-1.106512	-1.111474	-2.3116	-2.638074	0.533031	-1.287697	0.423605	-0.452474	-0.18984	-0.423363	-1.863241	-1.228877	-0.381764	0.265192
-0.076312	-1.289602	-0.899962	-0.944079	-2.198992	-2.524607	0.698748	-1.208008	0.468236	-0.40275	-0.059456	-0.31018	-1.696265	-1.010317	-0.14642	0.430587
-0.038253	-1.289602	-0.854087	-0.927306	-2.233922	-2.599142	0.632689	-1.240707	0.525393	-0.3905	0.015051	-0.253721	-1.863241	-1.206884	-0.320308	0.297355
0.00708600000000004	-1.241773	-0.831555	-0.92748	-2.299942	-2.714003	0.57163	-1.296386	0.564519	-0.4152	0.127663	-0.177872	-1.909665	-1.27348	-0.373886	0.238419
-0.079734	-1.269633	-0.885311	-0.944079	-2.369358	-2.809486	0.443017	-1.396588	0.613295	-0.501874	0.13119	-0.178253	-1.794336	-1.185952	-0.269929	0.286362
-0.119336	-1.303021	-0.925144	-0.977585	-2.420576	-2.865309	0.371087	-1.475203	0.514231	-0.64978	-0.00795	-0.329296	-1.934492	-1.337948	-0.397314	0.202082
-0.212665	-1.468455	-1.049893	-1.045244	-2.375046	-2.828587	0.389073	-1.487097	0.366764	-0.760271	-0.181352	-0.515462	-1.907723	-1.315614	-0.339584	0.249398
0.112163	-1.156582	-0.777179	-0.809149	-2.278485	-2.733683	0.511465	-1.449901	0.51971	-0.698839	0.075213	-0.348027	-1.91203	-1.269953	-0.276344	0.263266
-0.131446	-1.419405	-1.000272	-1.011673	-2.188053	-2.636154	0.682833	-1.391751	0.600083	-0.637518	0.097027	-0.328431	-2.090341	-1.489993	-0.427472	0.137392
-0.047902	-1.299402	-0.929531	-0.893558	-2.144371	-2.560494	0.760096	-1.391751	0.522526	-0.723329	0.017254	-0.460533	-1.930392	-1.338735	-0.23199	0.250582
-0.322174	-1.527473	-1.162099	-1.045269	-2.252118	-2.675226	0.602047	-1.508378	0.504415	-0.796764	-0.02612	-0.554113	-1.999356	-1.447768	-0.347499	0.156175
-0.635416	-1.808144	-1.438136	-1.279748	-2.254616	-2.673	0.605827	-1.593008	0.490774	-0.833778	0.011244	-0.516866	-1.956604	-1.446389	-0.295475	0.130586
-0.517587	-1.790062	-1.407361	-1.246349	-2.387405	-2.843508	0.434793	-1.752581	0.507296	-0.857716	0.127663	-0.460323	-2.259558	-1.814922	-0.614791	-0.125613
-0.242893	-1.4755	-1.114464	-0.977956	-2.40291	-2.89638	0.401491	-1.802311	0.480681	-0.870243	0.085443	-0.479639	-2.357295	-1.857746	-0.656819	-0.172996
-0.265668	-1.562514	-1.147614	-0.994825	-2.462689	-2.881344	0.360128	-1.833182	0.459093	-0.89404	0.105746	-0.440766	-2.275598	-1.747989	-0.471126	-0.088996
-0.382458	-1.650636	-1.255053	-1.06205	-2.385101	-2.842884	0.478933	-1.82244	0.273696	-1.028673	-0.18984	-0.666759	-2.126196	-1.554585	-0.337977	0.019626
-0.428371	-1.728022	-1.333023	-1.12857	-2.578737	-2.975457	0.277996	-1.89364	0.492161	-0.943111	0.14446	-0.347533	-2.161546	-1.556103	-0.339631	0.031688
-0.498859	-1.790062	-1.436142	-1.145939	-2.551421	-2.91968	0.253263	-1.894367	0.252937	-1.06514	-0.173345	-0.629439	-1.810711	-1.140214	0.099999	0.307466
-0.584052	-1.903301	-1.499465	-1.212348	-2.47861	-2.844085	0.297096	-1.85952	0.273696	-1.028673	-0.158905	-0.573359	-2.049214	-1.379612	-0.120346	0.165786
-0.513662	-1.828878	-1.446417	-1.129052	-2.548904	-2.934237	0.250204	-1.863534	0.214218	-1.004402	-0.23719	-0.592059	-2.522349	-1.900491	-0.572703	-0.172134
-0.353549	-1.72685	-1.349586	-1.027855	-2.667157	-3.032232	0.127709	-1.877307	0.240676	-0.991025	-0.121798	-0.532927	-2.259007	-1.552279	-0.258549	0.071355
-0.401247	-1.720425	-1.403312	-1.045205	-2.580939	-2.938287	0.234179	-1.823915	0.267243	-0.97951	-0.107959	-0.534962	-2.524936	-1.857746	-0.599849	-0.141131
-0.544649	-1.852837	-1.525835	-1.145009	-2.542384	-2.879384	0.345233	-1.768165	0.348569	-0.93121	-0.125847	-0.517156	-2.39397	-1.706192	-0.403741	-0.012417
-0.652193	-1.964923	-1.644899	-1.196165	-2.548904	-2.839929	0.319323	-1.775137	0.453091	-0.86973	0.074451	-0.365688	-2.375799	-1.729139	-0.46637	-0.033054
-0.625532	-1.918868	-1.591675	-1.179177	-2.717118	-3.011282	0.106803	-1.812391	0.435051	-0.83306	0.101005	-0.347276	-2.193783	-1.534626	-0.243575	0.093452
-0.551012	-1.985633	-1.61225	-1.196099	-2.676349	-2.974231	0.144736	-1.751832	0.228411	-0.930646	-0.227464	-0.609693	-2.190121	-1.512695	-0.193116	0.111431
-0.303354	-1.756633	-1.419739	-1.028423	-2.519645	-2.749028	0.371605	-1.611694	0.369173	-0.80793	-0.05018	-0.402236	-2.212082	-1.511521	-0.238128	0.130586
-0.190112	-1.664565	-1.378543	-0.92748	-2.619652	-2.86213	0.289464	-1.575821	0.354201	-0.821164	-0.135991	-0.46082	-2.188847	-1.49087	-0.269929	0.127903
-0.406784	-1.823398	-1.558983	-1.095661	-2.664965	-2.843508	0.201754	-1.540662	0.465377	-0.723231	-0.02835	-0.347908	-2.019581	-1.294986	-0.0845	0.271476
-0.288282	-1.78719	-1.513961	-1.01164	-2.633273	-2.824262	0.251374	-1.513324	0.369399	-0.747794	-0.169141	-0.498428	-1.860571	-1.141433	0.067506	0.36839
-0.207127	-1.686901	-1.417689	-0.927415	-2.560607	-2.729719	0.352505	-1.46086	0.322417	-0.760297	-0.137915	-0.498061	-2.088377	-1.382028	-0.220081	0.21728
-0.114307	-1.593249	-1.333287	-0.859973	-2.228861	-2.423423	0.802244	-1.288123	0.444335	-0.69895	-0.046735	-0.364471	-1.929299	-1.229615	-0.069658	0.314334
0.205437	-1.313761	-1.056432	-0.622627	-2.121274	-2.310459	0.956642	-1.236941	0.545363	-0.649841	0.023958	-0.328431	-1.694359	-0.964619	0.160746	0.52064
0.231462	-1.264694	-1.040944	-0.622357	-2.079593	-2.29505	1.00475	-1.179082	0.873293	-0.526026	0.425149	-0.00696200000000001	-1.590708	-0.877395	0.210709	0.569986
0.186337	-1.226125	-1.02319	-0.622543	-1.950591	-2.196938	1.157112	-1.086782	0.990312	-0.464873	0.493015	0.049749	-1.530433	-0.921305	0.211636	0.544578
0.192992	-1.194161	-0.99341	-0.639411	-2.164994	-2.406167	0.886389	-1.112928	0.958636	-0.476347	0.48647	-0.00521799999999997	-1.398964	-0.811804	0.249319	0.620828
0.458804	-0.898055	-0.737494	-0.435105	-2.224507	-2.466777	0.768069	-1.098454	1.006095	-0.427832	0.531316	0.031002	-1.531638	-1.032046	0.0312479999999999	0.458068
0.629686	-0.727027	-0.549896	-0.314857	-2.066148	-2.354285	0.902358	-1.031182	1.044074	-0.41496	0.561561	-0.00696200000000001	-1.513663	-1.008904	0.076254	0.482313
0.82971	-0.528779	-0.349304	-0.14295	-1.783529	-2.102451	1.243096	-0.881802	1.058965	-0.427832	0.466496	-0.063728	-1.67434	-1.207683	-0.174019	0.346564
0.784463	-0.557787	-0.386454	-0.142357	-1.7282	-2.066355	1.2885	-0.832501	1.286957	-0.291359	0.689229	0.16589	-1.320221	-0.789477	0.203115	0.591269
0.795749	-0.478705	-0.296859	-0.074157	-1.62274	-1.94807	1.437754	-0.727794	1.44693	-0.204004	0.91964	0.279657	-1.300771	-0.789527	0.221975	0.603602
0.650777	-0.636601	-0.397714	-0.14279	-1.648532	-2.024502	1.378645	-0.727045	1.416991	-0.19186	0.95015	0.259668	-1.141292	-0.656398	0.433489	0.749781
0.571373	-0.674134	-0.395842	-0.160235	-1.884569	-2.295828	1.046664	-0.884655	1.342531	-0.278927	0.875859	0.183173	-1.216271	-0.700577	0.386423	0.71654
0.737337	-0.588328	-0.250182	-0.09144	-1.683318	-2.179125	1.327529	-0.854718	1.212802	-0.40275	0.634956	-0.064165	-1.292877	-0.765708	0.351857	0.681844
0.77105	-0.566403	-0.196243	-0.07386	-1.685515	-2.256149	1.302055	-0.908867	1.193845	-0.440205	0.562834	-0.102068	-1.24054	-0.696735	0.377483	0.728808
0.766327	-0.557787	-0.188417	-0.0384610000000001	-1.69168	-2.258633	1.297821	-0.941427	1.476638	-0.340966	0.84224	0.204898	-1.389425	-0.877395	0.237727	0.618385
0.610233	-0.672462	-0.25978	-0.108158	-1.696038	-2.257436	1.279544	-0.93806	1.628234	-0.2666	1.054563	0.336418	-1.086902	-0.544438	0.528103	0.877465
0.673615	-0.638264	-0.196243	-0.0219900000000002	-1.444845	-2.005418	1.574102	-0.798986	1.540117	-0.241553	0.946835	0.260093	-1.175935	-0.610935	0.461393	0.812121
0.640311	-0.627276	-0.156642	-0.02229	-1.613095	-2.179634	1.366919	-0.827611	1.494387	-0.22929	0.967262	0.259668	-1.376418	-0.855489	0.276917	0.65087
0.597791	-0.734956	-0.175554	-0.0740960000000001	-1.474071	-2.026896	1.494114	-0.72185	1.228577	-0.365865	0.451722	-0.158435	-1.26423	-0.767379	0.434409	0.720033
