fnirSoft:	Exported Text File
Version:	4.2
ExportDate:	12/18/2023 12:16:54 PM
VariableInfo
Name:	oxygraph33.hbt.Time1
Size:	2335 x 1
Type:	Numeric
Content:	Time
Date:	12/18/2023 12:16:45 PM
Notes:	Time saved by Oxygraph from file C:\Users\Anette Johansson\Documents\COBI Studio Data\LRV patienter\0034p_group1_R\NHPM_0034p.oxy
Labels:	HBT	TIME
VariableData
Time

24.535
25.046
25.556
26.066
26.576
27.086
27.596
28.106
28.616
29.126
29.636
30.146
30.656
31.166
31.676
32.186
32.696
33.206
33.716
34.226
34.736
35.246
35.756
36.266
36.776
37.286
37.796
38.306
38.816
39.326
39.836
40.346
40.855
41.365
41.875
42.385
42.895
43.405
43.915
44.425
44.935
45.445
45.955
46.465
46.975
47.485
47.995
48.505
49.015
49.525
50.035
50.545
51.055
51.565
52.075
52.585
53.095
53.605
54.115
54.625
55.135
55.645
56.155
56.665
57.175
57.684
58.194
58.704
59.214
59.724
60.234
60.744
61.254
61.764
62.274
62.784
63.294
63.804
64.314
64.824
65.334
65.844
66.354
66.864
67.374
67.884
68.394
68.904
69.414
69.924
70.434
70.944
71.454
71.964
72.474
72.984
73.494
74.004
74.513
75.023
75.533
76.043
76.553
77.063
77.573
78.083
78.593
79.103
79.613
80.123
80.633
81.143
81.653
82.163
82.673
83.183
83.693
84.203
84.713
85.223
85.733
86.243
86.753
87.263
87.773
88.283
88.793
89.303
89.813
90.322
90.832
91.343
91.852
92.362
92.872
93.382
93.892
94.402
94.912
95.422
95.932
96.442
96.952
97.462
97.972
98.482
98.992
99.502
100.012
100.522
101.032
101.542
102.052
102.562
103.072
103.582
104.092
104.602
105.112
105.622
106.132
106.642
107.152
107.662
108.171
108.681
109.191
109.701
110.211
110.721
111.231
111.741
112.251
112.761
113.271
113.781
114.291
114.801
115.311
115.821
116.331
116.841
117.351
117.861
118.371
118.881
119.391
119.901
120.411
120.921
121.431
121.941
122.451
122.961
123.471
123.98
124.49
125
125.51
126.02
126.53
127.04
127.55
128.06
128.57
129.08
129.59
130.1
130.61
131.12
131.63
132.14
132.65
133.16
133.67
134.18
134.69
135.2
135.71
136.22
136.73
137.24
137.75
138.26
138.77
139.28
139.79
140.299
140.809
141.319
141.829
142.339
142.849
143.359
143.869
144.379
144.889
145.399
145.909
146.419
146.929
147.439
147.949
148.459
148.969
149.479
149.989
150.499
151.009
151.519
152.029
152.539
153.049
153.559
154.069
154.579
155.089
155.599
156.109
156.618
157.129
157.638
158.148
158.658
159.168
159.678
160.188
160.698
161.208
161.718
162.228
162.738
163.248
163.758
164.268
164.778
165.288
165.798
166.308
166.818
167.328
167.838
168.348
168.858
169.368
169.878
170.388
170.898
171.408
171.918
172.428
172.937
173.447
173.957
174.467
174.977
175.487
175.997
176.507
177.017
177.527
178.037
178.547
179.057
179.567
180.077
180.587
181.097
181.607
182.117
182.627
183.137
183.647
184.157
184.667
185.177
185.687
186.197
186.707
187.217
187.727
188.237
188.747
189.257
189.767
190.276
190.786
191.296
191.806
192.316
192.826
193.336
193.846
194.356
194.866
195.376
195.886
196.396
196.906
197.416
197.926
198.436
198.946
199.456
199.966
200.476
200.986
201.496
202.006
202.516
203.026
203.536
204.046
204.556
205.066
205.576
206.086
206.596
207.105
207.615
208.125
208.635
209.145
209.655
210.165
210.675
211.185
211.695
212.205
212.715
213.225
213.735
214.245
214.755
215.265
215.775
216.285
216.795
217.305
217.815
218.325
218.835
219.345
219.855
220.365
220.875
221.385
221.895
222.405
222.914
223.424
223.934
224.444
224.954
225.464
225.974
226.484
226.994
227.504
228.014
228.524
229.034
229.544
230.054
230.564
231.074
231.584
232.094
232.604
233.114
233.624
234.134
234.644
235.154
235.664
236.174
236.684
237.194
237.704
238.214
238.724
239.234
239.743
240.253
240.763
241.273
241.783
242.293
242.803
243.313
243.823
244.333
244.843
245.353
245.863
246.373
246.883
247.393
247.903
248.413
248.923
249.433
249.943
250.453
250.963
251.473
251.983
252.493
253.003
253.513
254.023
254.533
255.043
255.553
256.063
256.573
257.082
257.592
258.102
258.612
259.122
259.632
260.142
260.652
261.162
261.672
262.182
262.692
263.202
263.712
264.222
264.732
265.242
265.752
266.262
266.772
267.282
267.792
268.302
268.812
269.322
269.832
270.342
270.852
271.362
271.872
272.382
272.891
273.401
273.911
274.421
274.931
275.441
275.951
276.461
276.971
277.481
277.991
278.501
279.011
279.521
280.031
280.541
281.051
281.561
282.071
282.581
283.091
283.601
284.111
284.621
285.131
285.641
286.151
286.661
287.171
287.681
288.191
288.701
289.21
289.721
290.23
290.74
291.25
291.76
292.27
292.78
293.29
293.8
294.31
294.82
295.33
295.84
296.35
296.86
297.37
297.88
298.39
298.9
299.41
299.92
300.43
300.94
301.45
301.96
302.47
302.98
303.49
304
304.51
305.02
305.529
306.04
306.55
307.059
307.569
308.079
308.589
309.099
309.609
310.119
310.629
311.139
311.649
312.159
312.669
313.179
313.689
314.199
314.709
315.219
315.729
316.239
316.749
317.259
317.769
318.279
318.789
319.299
319.809
320.319
320.829
321.339
321.849
322.358
322.869
323.378
323.888
324.398
324.908
325.418
325.928
326.438
326.948
327.458
327.968
328.478
328.988
329.498
330.008
330.518
331.028
331.538
332.048
332.558
333.068
333.578
334.088
334.598
335.108
335.618
336.128
336.638
337.148
337.658
338.168
338.678
339.187
339.697
340.207
340.717
341.227
341.737
342.247
342.757
343.267
343.777
344.287
344.797
345.307
345.817
346.327
346.837
347.347
347.857
348.367
348.877
349.387
349.897
350.407
350.917
351.427
351.937
352.447
352.957
353.467
353.977
354.487
354.997
355.506
356.016
356.526
357.036
357.546
358.056
358.566
359.076
359.586
360.096
360.606
361.116
361.626
362.136
362.646
363.156
363.666
364.176
364.686
365.196
365.706
366.216
366.726
367.236
367.746
368.256
368.766
369.276
369.786
370.296
370.806
371.316
371.826
372.335
372.845
373.355
373.865
374.375
374.885
375.395
375.905
376.415
376.925
377.435
377.945
378.455
378.965
379.475
379.985
380.495
381.005
381.515
382.025
382.535
383.045
383.555
384.065
384.575
385.085
385.595
386.105
386.615
387.125
387.635
388.144
388.654
389.164
389.674
390.184
390.694
391.204
391.714
392.224
392.734
393.244
393.754
394.264
394.774
395.284
395.794
396.304
396.814
397.324
397.834
398.344
398.854
399.364
399.874
400.384
400.894
401.404
401.914
402.424
402.934
403.444
403.954
404.464
404.974
405.483
405.993
406.503
407.013
407.523
408.033
408.543
409.053
409.563
410.073
410.583
411.093
411.603
412.113
412.623
413.133
413.643
414.153
414.663
415.173
415.683
416.193
416.703
417.213
417.723
418.233
418.743
419.253
419.763
420.273
420.783
421.292
421.802
422.312
422.822
423.332
423.842
424.352
424.862
425.372
425.882
426.392
426.902
427.412
427.922
428.432
428.942
429.452
429.962
430.472
430.982
431.492
432.002
432.512
433.022
433.532
434.042
434.552
435.062
435.572
436.082
436.592
437.102
437.612
438.122
438.631
439.142
439.651
440.161
440.671
441.181
441.691
442.201
442.711
443.221
443.731
444.241
444.751
445.261
445.771
446.281
446.791
447.301
447.811
448.321
448.831
449.341
449.851
450.361
450.871
451.381
451.891
452.401
452.911
453.421
453.931
454.441
454.95
455.46
455.97
456.48
456.99
457.5
458.01
458.52
459.03
459.54
460.05
460.56
461.07
461.58
462.09
462.6
463.11
463.62
464.13
464.64
465.15
465.66
466.17
466.68
467.19
467.7
468.21
468.72
469.23
469.74
470.25
470.76
471.269
471.779
472.289
472.799
473.309
473.819
474.329
474.839
475.349
475.859
476.369
476.879
477.389
477.899
478.409
478.919
479.429
479.939
480.449
480.959
481.469
481.979
482.489
482.999
483.509
484.019
484.529
485.039
485.549
486.059
486.569
487.079
487.589
488.098
488.608
489.118
489.628
490.138
490.648
491.158
491.668
492.178
492.688
493.198
493.708
494.218
494.728
495.238
495.748
496.258
496.768
497.278
497.788
498.298
498.808
499.318
499.828
500.338
500.848
501.358
501.868
502.378
502.888
503.398
503.908
504.418
504.927
505.437
505.947
506.457
506.967
507.477
507.987
508.497
509.007
509.517
510.027
510.537
511.047
511.557
512.067
512.577
513.087
513.597
514.107
514.617
515.127
515.637
516.147
516.657
517.167
517.677
518.187
518.697
519.207
519.717
520.227
520.736
521.246
521.756
522.266
522.776
523.286
523.796
524.306
524.816
525.326
525.836
526.346
526.856
527.366
527.876
528.386
528.896
529.406
529.916
530.426
530.936
531.446
531.956
532.466
532.976
533.486
533.996
534.506
535.016
535.526
536.036
536.546
537.056
537.566
538.075
538.585
539.095
539.605
540.115
540.625
541.135
541.645
542.155
542.665
543.175
543.685
544.195
544.705
545.215
545.725
546.235
546.745
547.255
547.765
548.275
548.785
549.295
549.805
550.315
550.825
551.335
551.845
552.355
552.865
553.375
553.885
554.394
554.904
555.414
555.924
556.434
556.944
557.454
557.964
558.474
558.984
559.494
560.004
560.514
561.024
561.534
562.044
562.554
563.064
563.574
564.084
564.594
565.104
565.614
566.124
566.634
567.144
567.654
568.164
568.674
569.184
569.694
570.204
570.713
571.223
571.733
572.243
572.753
573.263
573.773
574.283
574.793
575.303
575.813
576.323
576.833
577.343
577.853
578.363
578.873
579.383
579.893
580.403
580.913
581.423
581.933
582.443
582.953
583.463
583.973
584.483
584.993
585.503
586.013
586.523
587.033
587.542
588.052
588.562
589.072
589.582
590.092
590.602
591.112
591.622
592.132
592.642
593.152
593.662
594.172
594.682
595.192
595.702
596.212
596.722
597.232
597.742
598.252
598.762
599.272
599.782
600.292
600.802
601.312
601.822
602.332
602.842
603.352
603.862
604.371
604.881
605.391
605.901
606.411
606.921
607.431
607.941
608.451
608.961
609.471
609.981
610.491
611.001
611.511
612.021
612.531
613.041
613.551
614.061
614.571
615.081
615.591
616.101
616.611
617.121
617.631
618.141
618.651
619.161
619.671
620.181
620.69
621.2
621.71
622.22
622.73
623.24
623.75
624.26
624.77
625.28
625.79
626.3
626.81
627.32
627.83
628.34
628.85
629.36
629.87
630.38
630.89
631.4
631.91
632.42
632.93
633.44
633.95
634.46
634.97
635.48
635.99
636.5
637.009
637.519
638.029
638.539
639.049
639.559
640.069
640.579
641.089
641.599
642.109
642.619
643.129
643.639
644.149
644.659
645.169
645.679
646.189
646.699
647.209
647.719
648.229
648.739
649.249
649.759
650.269
650.779
651.289
651.799
652.309
652.819
653.328
653.838
654.348
654.858
655.368
655.878
656.388
656.898
657.408
657.918
658.428
658.938
659.448
659.958
660.468
660.978
661.488
661.998
662.508
663.018
663.528
664.038
664.548
665.058
665.568
666.078
666.588
667.098
667.608
668.118
668.628
669.138
669.647
670.157
670.667
671.177
671.687
672.197
672.707
673.217
673.727
674.237
674.747
675.257
675.767
676.277
676.787
677.297
677.807
678.317
678.827
679.337
679.847
680.357
680.867
681.377
681.887
682.397
682.907
683.417
683.927
684.437
684.947
685.457
685.966
686.477
686.986
687.496
688.006
688.516
689.026
689.536
690.046
690.556
691.066
691.576
692.086
692.596
693.106
693.616
694.126
694.636
695.146
695.656
696.166
696.676
697.186
697.696
698.206
698.716
699.226
699.736
700.246
700.756
701.266
701.776
702.286
702.796
703.305
703.815
704.325
704.835
705.345
705.855
706.365
706.875
707.385
707.895
708.405
708.915
709.425
709.935
710.445
710.955
711.465
711.975
712.485
712.995
713.505
714.015
714.525
715.035
715.545
716.055
716.565
717.075
717.585
718.095
718.604
719.114
719.625
720.134
720.644
721.154
721.664
722.174
722.684
723.194
723.704
724.214
724.724
725.234
725.744
726.254
726.764
727.274
727.784
728.294
728.804
729.314
729.824
730.334
730.844
731.354
731.864
732.374
732.884
733.394
733.904
734.414
734.924
735.434
735.944
736.453
736.963
737.473
737.983
738.493
739.003
739.513
740.023
740.533
741.043
741.553
742.063
742.573
743.083
743.593
744.103
744.613
745.123
745.633
746.143
746.653
747.163
747.673
748.183
748.693
749.203
749.713
750.223
750.733
751.243
751.753
752.263
752.773
753.282
753.792
754.302
754.812
755.322
755.832
756.342
756.852
757.362
757.872
758.382
758.892
759.402
759.912
760.422
760.932
761.442
761.952
762.462
762.972
763.482
763.992
764.502
765.012
765.522
766.032
766.542
767.052
767.562
768.072
768.581
769.092
769.601
770.111
770.621
771.131
771.641
772.151
772.661
773.171
773.681
774.191
774.701
775.211
775.721
776.231
776.741
777.251
777.761
778.271
778.781
779.291
779.801
780.311
780.821
781.331
781.841
782.351
782.861
783.371
783.881
784.391
784.901
785.411
785.92
786.43
786.94
787.45
787.96
788.47
788.98
789.49
790
790.51
791.02
791.53
792.04
792.55
793.06
793.57
794.08
794.59
795.1
795.61
796.12
796.63
797.14
797.65
798.16
798.67
799.18
799.69
800.2
800.71
801.22
801.73
802.24
802.749
803.259
803.769
804.279
804.789
805.299
805.809
806.319
806.829
807.339
807.849
808.359
808.869
809.379
809.889
810.399
810.909
811.419
811.929
812.439
812.949
813.459
813.969
814.479
814.989
815.499
816.009
816.519
817.029
817.539
818.049
818.558
819.069
819.579
820.088
820.598
821.108
821.618
822.128
822.638
823.148
823.658
824.168
824.678
825.188
825.698
826.208
826.718
827.228
827.738
828.248
828.758
829.268
829.778
830.288
830.798
831.308
831.818
832.328
832.838
833.348
833.858
834.368
834.878
835.387
835.897
836.407
836.917
837.427
837.937
838.447
838.957
839.467
839.977
840.487
840.997
841.507
842.017
842.527
843.037
843.547
844.057
844.567
845.077
845.587
846.097
846.607
847.117
847.627
848.137
848.647
849.157
849.667
850.177
850.687
851.197
851.707
852.216
852.726
853.236
853.746
854.256
854.766
855.276
855.786
856.296
856.806
857.316
857.826
858.336
858.846
859.356
859.866
860.376
860.886
861.396
861.906
862.416
862.926
863.436
863.946
864.456
864.966
865.476
865.986
866.496
867.006
867.516
868.026
868.535
869.045
869.555
870.065
870.575
871.085
871.595
872.105
872.615
873.125
873.635
874.145
874.655
875.165
875.675
876.185
876.695
877.205
877.715
878.225
878.735
879.245
879.755
880.265
880.775
881.285
881.795
882.305
882.815
883.325
883.835
884.345
884.855
885.364
885.874
886.384
886.894
887.404
887.914
888.424
888.934
889.444
889.954
890.464
890.974
891.484
891.994
892.504
893.014
893.524
894.034
894.544
895.054
895.564
896.074
896.584
897.094
897.604
898.114
898.624
899.134
899.644
900.154
900.663
901.174
901.684
902.193
902.703
903.213
903.723
904.233
904.743
905.253
905.763
906.273
906.783
907.293
907.803
908.313
908.823
909.333
909.843
910.353
910.863
911.373
911.883
912.393
912.903
913.413
913.923
914.433
914.943
915.453
915.963
916.473
916.983
917.493
918.002
918.512
919.022
919.532
920.042
920.552
921.062
921.572
922.082
922.592
923.102
923.612
924.122
924.632
925.142
925.652
926.162
926.672
927.182
927.692
928.202
928.712
929.222
929.732
930.242
930.752
931.262
931.772
932.282
932.792
933.302
933.812
934.322
934.831
935.341
935.851
936.361
936.871
937.381
937.891
938.401
938.911
939.421
939.931
940.441
940.951
941.461
941.971
942.481
942.991
943.501
944.011
944.521
945.031
945.541
946.051
946.561
947.071
947.581
948.091
948.601
949.111
949.621
950.131
950.641
951.15
951.66
952.17
952.68
953.19
953.7
954.21
954.72
955.23
955.74
956.25
956.76
957.27
957.78
958.29
958.8
959.31
959.82
960.33
960.84
961.35
961.86
962.37
962.88
963.39
963.9
964.41
964.92
965.43
965.94
966.45
966.96
967.469
967.979
968.489
968.999
969.509
970.019
970.529
971.039
971.549
972.059
972.569
973.079
973.589
974.099
974.609
975.119
975.629
976.139
976.649
977.159
977.669
978.179
978.689
979.199
979.709
980.219
980.729
981.239
981.749
982.259
982.769
983.279
983.789
984.299
984.808
985.318
985.828
986.338
986.848
987.358
987.868
988.378
988.888
989.398
989.908
990.418
990.928
991.438
991.948
992.458
992.968
993.478
993.988
994.498
995.008
995.518
996.028
996.538
997.048
997.558
998.068
998.578
999.088
999.598
1000.108
1000.618
1001.127
1001.637
1002.147
1002.657
1003.167
1003.677
1004.187
1004.697
1005.207
1005.717
1006.227
1006.737
1007.247
1007.757
1008.267
1008.777
1009.287
1009.797
1010.307
1010.817
1011.327
1011.837
1012.347
1012.857
1013.367
1013.877
1014.387
1014.897
1015.407
1015.917
1016.427
1016.937
1017.446
1017.956
1018.466
1018.976
1019.486
1019.996
1020.506
1021.016
1021.526
1022.036
1022.546
1023.056
1023.566
1024.076
1024.586
1025.096
1025.606
1026.116
1026.626
1027.136
1027.646
1028.156
1028.666
1029.176
1029.686
1030.196
1030.706
1031.216
1031.726
1032.236
1032.746
1033.256
1033.766
1034.276
1034.785
1035.295
1035.805
1036.315
1036.825
1037.335
1037.845
1038.355
1038.865
1039.375
1039.885
1040.395
1040.905
1041.415
1041.925
1042.435
1042.945
1043.455
1043.965
1044.475
1044.985
1045.495
1046.005
1046.515
1047.025
1047.535
1048.045
1048.555
1049.065
1049.575
1050.085
1050.594
1051.104
1051.614
1052.124
1052.634
1053.144
1053.654
1054.164
1054.674
1055.184
1055.694
1056.204
1056.714
1057.224
1057.734
1058.244
1058.754
1059.264
1059.774
1060.284
1060.794
1061.304
1061.814
1062.324
1062.834
1063.344
1063.854
1064.364
1064.874
1065.384
1065.894
1066.404
1066.914
1067.423
1067.933
1068.443
1068.953
1069.463
1069.973
1070.483
1070.993
1071.503
1072.013
1072.523
1073.033
1073.543
1074.053
1074.563
1075.073
1075.583
1076.093
1076.603
1077.113
1077.623
1078.133
1078.643
1079.153
1079.663
1080.173
1080.683
1081.193
1081.703
1082.213
1082.723
1083.233
1083.742
1084.252
1084.762
1085.272
1085.782
1086.292
1086.802
1087.312
1087.822
1088.332
1088.842
1089.352
1089.862
1090.372
1090.882
1091.392
1091.902
1092.412
1092.922
1093.432
1093.942
1094.452
1094.962
1095.472
1095.982
1096.492
1097.002
1097.512
1098.022
1098.532
1099.041
1099.552
1100.061
1100.571
1101.081
1101.591
1102.101
1102.611
1103.121
1103.631
1104.141
1104.651
1105.161
1105.671
1106.181
1106.691
1107.201
1107.711
1108.221
1108.731
1109.241
1109.751
1110.261
1110.771
1111.281
1111.791
1112.301
1112.811
1113.321
1113.831
1114.341
1114.851
1115.361
1115.87
1116.381
1116.891
1117.4
1117.91
1118.42
1118.93
1119.44
1119.95
1120.46
1120.97
1121.48
1121.99
1122.5
1123.01
1123.52
1124.03
1124.54
1125.05
1125.56
1126.07
1126.58
1127.09
1127.6
1128.11
1128.62
1129.13
1129.64
1130.15
1130.66
1131.17
1131.68
1132.19
1132.7
1133.21
1133.719
1134.229
1134.739
1135.249
1135.759
1136.269
1136.779
1137.289
1137.799
1138.309
1138.819
1139.329
1139.839
1140.349
1140.859
1141.369
1141.879
1142.389
1142.899
1143.409
1143.919
1144.429
1144.939
1145.449
1145.959
1146.469
1146.979
1147.489
1147.999
1148.509
1149.019
1149.529
1150.038
1150.548
1151.058
1151.568
1152.078
1152.588
1153.098
1153.608
1154.118
1154.628
1155.138
1155.648
1156.158
1156.668
1157.178
1157.688
1158.198
1158.708
1159.218
1159.728
1160.238
1160.748
1161.258
1161.768
1162.278
1162.788
1163.298
1163.808
1164.318
1164.828
1165.338
1165.847
1166.357
1166.867
1167.377
1167.887
1168.397
1168.907
1169.417
1169.927
1170.437
1170.947
1171.457
1171.967
1172.477
1172.987
1173.497
1174.007
1174.517
1175.027
1175.537
1176.047
1176.557
1177.067
1177.577
1178.087
1178.597
1179.107
1179.617
1180.127
1180.637
1181.147
1181.657
1182.167
1182.676
1183.186
1183.696
1184.206
1184.716
1185.226
1185.736
1186.246
1186.756
1187.266
1187.776
1188.286
1188.796
1189.306
1189.816
1190.326
1190.836
1191.346
1191.856
1192.366
1192.876
1193.386
1193.896
1194.406
1194.916
1195.426
1195.936
1196.446
1196.956
1197.466
1197.976
1198.485
1198.995
1199.505
1200.015
1200.525
1201.035
1201.545
1202.055
1202.565
1203.075
1203.585
1204.095
1204.605
1205.115
1205.625
1206.135
1206.645
1207.155
1207.665
1208.175
1208.685
1209.195
1209.705
1210.215
1210.725
1211.235
1211.745
1212.255
1212.765
1213.275
1213.785
1214.295
1214.805
