fnirSoft:	Exported Text File
Version:	4.2
ExportDate:	12/18/2023 12:16:54 PM
VariableInfo
Name:	oxygraph33.oxy.Block1
Size:	2335 x 16
Type:	Numeric
Content:	Hemoglobin
Date:	12/18/2023 12:16:45 PM
Notes:	Oxygenation (difference Hb) concentration changes data saved by Oxygraph from file C:\Users\Anette Johansson\Documents\COBI Studio Data\LRV patienter\0034p_group1_R\NHPM_0034p.oxy
Labels:	OXY	DATA
VariableData
Hemoglobin	Hemoglobin	Hemoglobin	Hemoglobin	Hemoglobin	Hemoglobin	Hemoglobin	Hemoglobin	Hemoglobin	Hemoglobin	Hemoglobin	Hemoglobin	Hemoglobin	Hemoglobin	Hemoglobin	Hemoglobin
Optode1	Optode2	Optode3	Optode4	Optode5	Optode6	Optode7	Optode8	Optode9	Optode10	Optode11	Optode12	Optode13	Optode14	Optode15	Optode16
-0.006624	0.124957	-0.244188	-0.010481	0.695842	0.838214	0.798499	0.384612	0.397209	0.287888	0.506127	0.612066	-0.17101	-0.182423	-0.48746	-0.444758
0.81906	0.923943	0.513169	0.686228	0.603753	0.795958	0.639934	0.319512	-0.520846	-0.271416	-0.783239	-0.578773	-0.744353	-0.795463	-1.152634	-0.790293
0.27544	0.545265	0.233938	0.482605	0.837675	1.106648	0.909028	0.401945	-0.595192	-0.245435	-0.802922	-0.539534	-0.063545	0.083554	-0.465407	-0.27702
0.978017	1.172157	0.740265	0.817093	0.786105	1.008914	0.864174	0.288207	-0.286084	-0.065924	-0.162837	0.06235	0.649967	0.855153	0.35732	0.337809
1.059088	1.181568	0.698007	0.839343	0.461201	0.671991	0.519356	0.240938	-0.830559	-0.341208	-0.932937	-0.670588	0.578854	0.781055	0.366422	0.245634
0.477564	0.556578	0.233938	0.386158	1.181177	1.512418	1.484622	0.545631	-0.38477	-0.229535	-0.613074	-0.395589	0.327539	0.706551	0.150177	0.120286
0.779403	0.939207	0.482059	0.600868	0.318774	0.573304	0.47814	0.138884	-0.27295	-0.107511	-0.329698	-0.041285	-0.169118	0.192479	-0.392095	-0.234764
-0.204102	-0.046208	-0.284836	-0.068598	-0.181802	0.035423	-0.222175	-0.175842	0.214161	0.232004	0.786902	0.730499	-0.259224	0.130622	-0.465407	-0.346891
0.697425	0.998891	0.555228	0.742694	-0.017705	0.276209	0.090005	-0.083202	-1.11244	-0.598747	-1.252806	-0.99434	0.449281	0.801102	0.497477	0.193568
-0.447075	-0.175246	-0.59744	-0.257252	0.0852	0.291743	0.12816	-0.019574	-0.681272	-0.418856	-0.74517	-0.62915	-0.788801	-0.479138	-1.04379	-0.751918
0.345305	0.91267	0.367767	0.53858	-0.329149	-0.165883	-0.261861	-0.14996	0.029076	0.01687	0.341924	0.45649	0.00872399999999998	0.34465	-0.052261	-0.150867
-0.713801	0.019944	-0.51035	-0.206492	0.492897	0.64811	0.549054	0.169938	-0.411482	-0.26539	-0.625535	-0.369743	-0.698206	-0.275855	-0.84169	-0.639898
-0.409803	0.283112	-0.209084	0.01976	-0.225989	-0.025428	-0.261861	-0.09571	-0.509754	-0.241476	-0.637527	-0.459979	0.551484	1.030218	0.507053	0.331637
-1.238549	-0.692445	-1.028699	-0.676566	-0.07528	0.041592	-0.067244	0.041851	0.269845	0.169168	0.611505	0.724978	-0.426047	-0.16651	-0.53154	-0.448618
-0.057507	0.608908	0.058563	0.267519	-0.350718	-0.256544	-0.37856	-0.085989	-0.64448	-0.25546	-0.764739	-0.538987	-0.124187	0.239547	-0.181519	-0.178742
-1.058425	-0.478837	-0.830778	-0.558219	0.178289	0.307247	0.360518	0.189184	-0.386154	-0.107511	-0.486368	-0.252202	-0.380509	-0.087858	-0.564749	-0.434295
-0.090893	0.664524	0.038674	0.197123	-0.256074	-0.240088	-0.223	-0.076979	0.066037	0.045789	0.233621	0.319445	0.578854	1.090492	0.609856	0.430102
-0.659238	0.123093	-0.51035	-0.181227	0.25009	0.24996	0.319956	0.161128	-0.533938	-0.331379	-0.584953	-0.395589	0.717214	1.232248	0.813659	0.508034
-0.541711	0.167918	-0.365549	-0.063068	-0.359271	-0.314671	-0.3785	-0.132136	-0.337759	-0.25546	-0.377247	-0.252202	0.161586	0.503885	0.199688	0.047395
-1.077238	-0.493651	-0.950474	-0.597801	0.127144	0.035423	0.167335	0.097048	-0.176845	-0.117871	0.032917	0.101814	-0.259224	0.224895	-0.254788	-0.127617
-0.266366	0.372305	-0.220792	0.030424	-0.169359	-0.222435	-0.261052	-0.13184	-0.484499	-0.325101	-0.317207	-0.212994	-0.47084	-0.165704	-0.516565	-0.363031
-0.847898	-0.235192	-0.73863	-0.456804	-0.026884	-0.01262	-0.025979	0.033521	-0.471878	-0.384875	-0.634385	-0.434796	-0.851605	-0.543496	-1.018266	-0.775009
-0.181353	0.455132	-0.168696	0.088971	-0.229887	-0.322692	-0.261318	-0.113428	-0.275019	-0.26539	-0.385375	-0.264979	-1.079909	-0.73186	-1.180966	-0.824442
-0.391348	0.148638	-0.430196	-0.11501	0.176305	0.171642	0.130375	0.071091	0.302456	0.094644	0.734256	0.646094	-0.139865	0.066541	-0.15723	-0.214308
-0.051634	0.508452	-0.077436	0.147066	-0.61077	-0.624532	-0.810918	-0.315595	0.144199	-0.024464	0.638281	0.544271	-0.789511	-0.542066	-0.801169	-0.652145
-0.153696	0.380406	-0.275239	-0.020424	-0.212171	-0.255349	-0.221408	-0.039207	-0.420549	-0.313423	-0.428834	-0.289567	0.147361	0.409704	0.199688	-0.021885
0.398345	0.889854	0.264838	0.409134	-0.519891	-0.641687	-0.614722	-0.223283	0.162757	-0.047673	0.189833	0.208391	-0.044722	0.337828	-0.00120199999999998	0.00640199999999999
-0.10832	0.309207	-0.232493	0.111335	-0.172808	-0.086985	-0.299488	-0.029141	-0.283897	-0.219442	-0.360067	-0.224469	-0.015738	0.257516	-0.050813	-0.104581
0.535417	0.790924	0.171775	0.457253	0.287036	0.467436	0.487888	0.28585	-0.308122	-0.175288	-0.379219	-0.145382	0.059704	0.413995	0.217778	0.103743
0.550643	0.852609	0.254886	0.505838	0.255178	0.436939	0.256406	0.232157	-0.205965	-0.198963	-0.314691	-0.051328	1.189112	1.660025	1.530411	0.976668
0.510625	0.763741	0.202925	0.49423	0.111459	0.267098	0.33448	0.232157	0.167738	0.153485	0.262998	0.378962	0.659663	1.064429	0.936354	0.560021
0.107453	0.562911	-0.036346	0.254417	0.409471	0.56734	0.56973	0.305675	-0.454683	-0.345599	-0.879633	-0.447383	0.90438	1.254271	1.029161	0.61225
0.209332	0.646594	-0.036346	0.290441	0.684872	0.768441	0.758809	0.367793	-0.254346	-0.251218	-0.614694	-0.18323	1.36289	1.695642	1.547737	0.936199
-0.524069	-0.090816	-0.548099	-0.106037	0.327483	0.482643	0.33448	0.249711	0.00698200000000002	-0.037089	0.078905	0.248049	0.747679	1.090492	0.813659	0.443206
0.263014	0.629752	0.109076	0.423095	0.358141	0.582371	0.532099	0.277109	-0.064616	-0.104852	-0.125958	0.160195	1.245498	1.58877	1.477349	0.82603
0.187193	0.646594	0.192483	0.530308	0.644824	0.866	0.846866	0.40636	0.486271	0.280494	0.798449	0.930501	1.222836	1.471226	1.524163	0.863669
-0.03443	0.395172	-0.088632	0.278514	0.265039	0.367356	0.258123	0.213487	0.654615	0.291895	0.90096	1.120078	1.08406	1.421904	1.294839	0.768222
0.00539100000000001	0.311117	-0.172192	0.314618	-0.096304	0.124296	-0.178083	0.093594	0.958394	0.392454	1.287561	1.342342	0.377058	0.536994	0.567463	0.279751
0.734684	1.126617	0.566217	0.961782	0.67558	0.893946	0.692239	0.487318	0.72973	0.269727	1.129415	1.292197	0.179787	0.489743	0.526461	0.266415
0.191663	0.629752	0.171694	0.566412	0.172833	0.282658	0.060955	0.200346	0.79024	0.367746	1.256569	1.252277	0.860409	1.241584	1.081336	0.67188
0.676176	0.95962	0.534965	0.925569	0.357422	0.552282	0.301963	0.341128	0.767765	0.408649	1.304505	1.342342	0.887016	1.20674	1.182683	0.828498
0.755851	1.239854	0.691426	1.023468	0.255178	0.540077	0.33826	0.312133	0.272605	0.175914	0.399465	0.617788	1.13251	1.492627	1.501076	1.025761
0.452395	0.781419	0.359387	0.808766	0.419108	0.737182	0.460983	0.397792	-0.07864	-0.068077	-0.11896	0.156678	0.758775	1.059835	1.051109	0.712092
0.14276	0.646795	0.266045	0.713559	0.21213	0.421649	0.225089	0.370203	-0.012373	-0.015623	-0.014494	0.224115	0.321069	0.52823	0.514943	0.409852
0.776969	1.04817	0.731509	1.128288	0.09825	0.293989	0.065218	0.30339	0.178706	0.104622	0.2332	0.606437	0.714506	0.998931	0.979409	0.679158
0.633533	0.993845	0.608599	1.059817	-0.098925	0.193375	-0.094872	0.209171	0.20831	0.078387	0.159118	0.543603	1.279159	1.708666	1.495753	1.001101
-0.03443	0.325939	0.077743	0.556599	0.202221	0.467436	0.261712	0.34702	0.385755	0.145953	0.320874	0.646421	1.528064	1.839847	1.820131	1.116103
0.427204	0.68629	0.360472	0.89599	0.408617	0.694665	0.541653	0.449682	0.19966	0.138414	0.165873	0.612475	1.36289	1.695642	1.629986	1.033999
0.628128	0.844595	0.51826	0.921599	0.294283	0.522085	0.38697	0.432419	0.323871	0.179661	0.432791	0.697661	1.000947	1.168343	1.205288	0.684667
0.218772	0.715012	0.266839	0.826194	0.57424	0.907621	0.746956	0.535274	0.872913	0.456633	1.018883	1.341688	1.350219	1.636254	1.518491	0.989031
1.055231	1.353772	1.037434	1.581586	1.193326	1.476528	1.460231	0.795607	0.940115	0.530614	1.216499	1.422213	0.816358	0.929987	0.844873	0.521116
0.892965	1.265499	0.934835	1.367612	0.667694	1.078664	1.065525	0.629676	0.840386	0.490082	0.910828	1.191575	0.335099	0.337828	0.277345	0.049305
0.850963	1.05299	0.780179	1.273374	0.780022	1.035841	0.859184	0.581536	0.00690499999999999	-0.026406	-0.352633	0.065159	0.78955	0.807964	0.855457	0.495078
1.195483	1.535543	1.168895	1.625349	1.325995	1.602063	1.572919	0.868907	0.35442	0.25086	0.121866	0.475113	1.398981	1.564636	1.530411	0.964285
0.098118	0.380918	0.203662	0.741637	1.111218	1.34819	1.419504	0.803952	1.466796	0.833434	1.735732	1.832946	0.377058	0.570311	0.567463	0.299015
1.195892	1.623592	1.239557	1.625349	0.759797	1.078395	1.058117	0.644711	0.540144	0.332807	0.419808	0.731234	0.090227	0.195515	0.031018	-0.048561
-0.00468400000000002	0.204239	0.067004	0.645586	1.071612	1.463072	1.464867	0.814502	0.276978	0.179661	0.127927	0.407004	1.577765	1.815067	1.836222	1.074864
1.216304	1.3758	1.176089	1.588445	0.054172	0.406331	0.190184	0.339704	1.206628	0.721378	1.450449	1.532407	0.043597	0.162966	0.144978	-0.067322
0.485814	0.653525	0.466197	0.877618	1.028991	1.34819	1.460231	0.791286	0.408705	0.213321	0.059342	0.315634	1.114757	1.349472	1.418475	0.788222
0.751233	1.033448	0.685258	1.168165	0.790888	1.021608	1.139195	0.659739	0.610469	0.314007	0.365021	0.629126	1.035824	1.314424	1.253697	0.735621
-0.245094	0.032953	-0.122157	0.353657	0.57424	0.964683	1.061791	0.613739	1.704397	0.860612	2.084467	2.11081	-0.062191	0.115761	-0.00991500000000001	-0.118442
1.276765	1.402781	1.124864	1.558497	0.842144	1.1776	1.256942	0.705702	0.889332	0.45204	0.907086	1.15159	1.737598	2.087918	1.947499	1.176815
0.098118	0.277616	0.056511	0.54914	0.523106	0.86417	0.715477	0.524983	0.905855	0.418632	0.808908	1.050458	0.62224	0.951118	0.711275	0.383766
1.075867	1.211945	0.911326	1.310164	0.253108	0.594761	0.425195	0.391843	1.206628	0.630421	1.43583	1.472182	1.201996	1.457156	1.377228	0.820911
0.307049	0.335351	0.088119	0.572143	0.584178	0.936462	0.821886	0.567701	1.023097	0.523482	1.061289	1.341688	0.581891	0.875329	0.783041	0.481981
1.055231	1.415686	0.942822	1.346983	1.314294	1.657912	1.649314	0.862139	0.292216	0.082648	-0.072091	0.327461	-0.00568299999999999	0.175048	-0.035563	-0.090744
-0.102305	0.039378	0.00431199999999998	0.413875	0.522175	0.681924	0.660139	0.509837	0.811517	0.406995	0.763802	0.991978	0.069065	0.33019	0.190766	-0.012272
0.915594	1.221225	0.919446	1.173766	1.364817	1.585966	1.725503	0.849511	1.410418	0.684549	1.627998	1.631181	0.51825	0.686965	0.578895	0.241491
0.165002	0.335351	0.192636	0.668305	1.458211	1.713627	1.806715	0.886957	0.817862	0.350738	0.807567	0.865862	0.828039	1.022571	0.864384	0.488648
0.692208	0.958652	0.568114	0.947332	0.233113	0.398093	0.301963	0.268359	1.111758	0.540123	1.293377	1.352523	1.585024	1.837199	1.704766	1.070796
0.227112	0.414699	0.223989	0.583622	0.594132	0.908404	0.859184	0.630693	-0.00758800000000004	0.172159	-0.232946	0.141309	0.633339	0.774978	0.671524	0.365273
0.563567	1.087852	0.709113	1.049036	1.030513	1.106648	1.200917	0.686406	0.106361	0.353153	0.214168	0.398083	0.82105	1.061952	0.84413	0.462549
-0.0380959999999999	0.175348	0.163193	0.64659	0.361339	0.208215	0.173711	0.197789	0.311491	0.718874	0.547346	0.64217	0.627483	0.662623	0.652114	0.201281
-0.230217	0.265954	0.286249	0.703393	0.392809	0.150756	0.17234	0.080665	0.179051	0.745425	0.539435	0.418707	1.448138	1.510421	1.536273	0.703044
-0.72725	-0.468095	-0.383279	0.054996	0.924486	0.758116	0.948556	0.322503	-0.159133	0.454164	0.102061	0.0904360000000001	1.35511	1.461202	1.530093	0.722912
-0.025483	0.356187	0.336612	0.703393	0.583961	0.379771	0.367059	0.157268	-0.644017	0.018297	-0.903468	-0.756953	0.567555	0.569797	0.571511	0.190153
-0.267121	-0.00650999999999996	-0.131811	0.302374	0.027298	-0.256544	-0.338704	-0.023665	0.246735	0.4854	0.547346	0.479742	0.977121	1.147546	1.166009	0.592174
0.044458	0.580144	0.367057	0.809956	0.321596	0.114891	0.092122	0.178216	-0.324968	0.012101	-0.530968	-0.382713	0.226885	0.248575	0.083955	-0.113759
-0.556008	-0.050392	-0.150465	0.326154	0.231283	0.032007	0.09104	0.129118	-0.189975	-0.016742	-0.390416	-0.252973	1.06305	1.193981	1.206328	0.553548
-0.244535	0.49353	0.316561	0.726006	-0.036009	-0.131631	-0.220464	0.054715	0.079588	0.117416	0.238627	0.264855	1.647738	1.848358	1.738372	1.035011
-0.350634	0.161492	0.113095	0.467667	0.280288	0.296602	0.288035	0.264029	-0.041738	0.039891	0.140948	0.072057	0.794785	0.902633	0.713377	0.406169
0.367654	0.97232	0.68179	1.009865	-0.199633	-0.356273	-0.45719	-0.103647	0.256105	0.184205	0.610294	0.4491	0.632866	0.782938	0.753594	0.265008
-0.0443	0.481652	0.26532	0.63373	0.10396	0.077277	0.018508	0.108079	-0.843552	-0.497467	-1.214955	-1.064453	0.033675	0.157923	-0.092646	-0.26033
0.466169	1.049576	0.651249	0.977176	0.185831	0.103328	0.058362	0.135434	-0.409112	-0.318711	-0.398408	-0.487107	0.286665	0.438284	0.109622	-0.099924
-0.165997	0.431134	0.214306	0.527909	0.26911	0.208215	0.406619	0.197976	-0.955201	-0.600256	-1.255264	-1.23506	1.059203	1.168222	1.06603	0.438186
-0.050436	0.757664	0.489029	0.800959	0.299422	0.375414	0.485836	0.179548	-0.929937	-0.591922	-1.346085	-1.274109	0.721958	0.755626	0.803744	0.187714
-0.056499	0.585894	0.367109	0.659624	0.522554	0.516335	0.681961	0.261089	-0.719082	-0.532336	-1.1238	-1.050384	0.429713	0.541682	0.469256	0.07836
0.18673	0.730135	0.478688	0.64659	0.411036	0.375414	0.565184	0.160356	-0.25973	-0.294619	-0.500656	-0.604634	-0.204124	-0.136181	-0.253854	-0.374077
-0.526773	-0.043658	-0.131811	0.027652	-0.178252	-0.289554	-0.259992	-0.159801	0.45779	0.078123	0.518669	0.346955	-0.262773	-0.229083	-0.351675	-0.416731
-0.256483	0.22577	-0.030953	0.194519	0.219911	0.083194	0.169742	-0.032068	0.200349	-0.073453	0.214097	0.113997	-0.054722	0.019746	-0.197716	-0.320552
-0.372507	0.161492	0.010774	0.218608	-0.066264	-0.331263	-0.26039	-0.14145	0.336485	-0.014302	0.232456	0.204928	0.372279	0.513473	0.254043	0.069646
0.076482	0.520203	0.438288	0.564924	-0.178252	-0.331263	-0.378382	-0.233043	-0.222312	-0.337807	-0.481352	-0.421745	0.269021	0.452538	0.29453	0.023923
-0.386773	-0.063863	-0.19505	-0.093539	0.248352	0.035423	0.211932	-0.022238	0.298864	-0.083529	0.128962	0.099038	-0.189053	-0.058473	-0.278591	-0.352633
-0.084933	0.270626	0.050918	0.194519	0.227553	0.019439	0.016305	-0.076979	0.510161	0.00113399999999997	0.536591	0.4491	0.459446	0.634865	0.397706	0.115283
-0.308832	0.045424	-0.185652	0.00187499999999999	0.310505	-0.032078	0.052724	-0.104728	-0.157811	-0.37959	-0.367962	-0.277776	0.270797	0.391444	0.109622	0.042427
0.16636	0.730155	0.418461	0.543363	0.623861	0.234355	0.327531	0.042437	-0.072351	-0.320254	-0.28027	-0.212994	-0.010484	0.175048	0.0691	-0.113759
-0.237169	0.194253	0.028815	0.133991	0.227553	-0.038538	0.094428	-0.057683	0.040425	-0.191939	-0.158681	-0.004104	-0.411558	-0.181948	-0.564749	-0.488288
0.402273	0.763741	0.398119	0.531815	0.390471	0.119167	0.134054	-0.08517	-0.381141	-0.412087	-0.880926	-0.684041	-0.619718	-0.477716	-0.740844	-0.620107
0.099896	0.506521	0.182589	0.351514	0.471755	0.203057	0.173711	-0.020723	0.030736	-0.259251	-0.19649	-0.055846	0.063482	0.236555	0.0691	-0.145925
0.205598	0.891658	0.500213	0.568109	0.552922	0.30261	0.408475	-0.011758	-0.319093	-0.455346	-0.689185	-0.539534	0.00286199999999998	0.172718	-0.100776	-0.26033
-0.018204	0.265954	0.038674	0.145951	0.502143	0.287092	0.408475	0.00671899999999997	-0.405597	-0.43782	-0.859723	-0.566036	0.286665	0.546173	0.150177	-0.00342499999999998
0.477564	0.95962	0.563034	0.654449	0.267584	0.071562	0.096926	-0.084719	-0.157811	-0.336363	-0.650012	-0.382601	-0.263116	-0.089745	-0.439932	-0.463055
0.16951	0.449799	0.192521	0.340654	0.65473	0.50984	0.692239	0.174245	0.082725	-0.122618	-0.104866	0.06235	-0.337128	-0.120367	-0.505827	-0.427428
0.596634	0.870703	0.604853	0.752862	0.511838	0.324988	0.534407	0.109669	0.456203	0.080977	0.421586	0.43745	-0.010484	0.096443	-0.011841	-0.159826
0.289072	0.680821	0.327331	0.500767	0.195412	0.097852	0.216487	-0.084242	0.287339	-0.112476	0.220226	0.180837	-0.815104	-0.603102	-1.003437	-0.663824
0.129722	0.483343	0.119898	0.268337	0.082919	0.097852	0.216487	-0.065687	-0.064616	-0.309025	-0.333835	-0.199074	0.690559	0.983013	0.70128	0.38451
-0.341723	-0.026665	-0.265585	-0.074235	0.92959	0.993325	1.281253	0.423628	-0.313679	-0.384875	-0.695746	-0.408247	-0.30701	-0.042175	-0.376761	-0.233979
0.022804	0.426391	0.171694	0.293178	0.05967	-0.00838899999999998	0.301963	0.037608	0.202263	-0.068549	0.140317	0.141309	0.958424	1.386868	0.977322	0.592555
-0.199286	0.131252	-0.119783	0.085101	0.388817	0.309503	0.657422	0.186007	0.146187	-0.073695	-0.275742	-0.091116	0.408758	0.72028	0.66045	0.273916
0.187193	0.624678	0.337956	0.526073	0.900536	0.964683	1.289269	0.446616	1.371557	0.571023	1.534122	1.48235	0.320723	0.659346	0.394226	0.228109
0.017849	0.557052	0.171802	0.393781	0.398857	0.394423	0.657422	0.169376	0.917765	0.366291	1.011928	1.010439	0.858294	1.37442	1.048512	0.735621
0.017849	0.431327	0.119513	0.307683	0.213347	0.177653	0.382567	0.095403	0.740482	0.280494	0.741029	0.788738	0.515488	0.909196	0.670438	0.403835
-0.170665	0.213443	-0.037977	0.172252	1.046174	1.121519	1.496316	0.569438	0.214712	-0.018691	-0.096615	0.108151	0.220244	0.617748	0.267985	0.141746
0.11597	0.425559	0.245293	0.419245	0.501591	0.476582	0.66863	0.25438	1.00629	0.404123	1.004889	1.149801	0.297151	0.699039	0.350165	0.272367
0.0355	0.34549	0.213816	0.419245	0.522175	0.534556	0.825067	0.263157	-0.021053	-0.180692	-0.852423	-0.366847	-0.287996	0.106755	-0.279271	-0.098805
0.11597	0.385508	0.308305	0.531066	0.429319	0.449035	0.584666	0.216818	0.525475	0.112194	-0.00310100000000002	0.280053	-0.017275	0.323378	0.089911	0.054711
0.539323	0.782362	0.520377	0.695497	0.780022	0.720842	1.024833	0.394754	1.162676	0.561826	1.276348	1.381906	0.070651	0.413995	0.195097	0.193568
0.332782	0.483255	0.299621	0.609005	0.884282	0.892645	1.11015	0.4615	0.675002	0.281279	0.322945	0.601131	-0.335339	-0.008683	-0.230275	-0.155414
0.107256	0.235421	0.1409	0.334857	1.267478	1.365832	1.71057	0.648578	1.113593	0.473398	0.885787	1.220066	0.720726	1.168343	0.948944	0.679158
0.436147	0.483255	0.436321	0.6204	0.750401	0.706054	1.03228	0.387581	1.55262	0.78568	1.701533	1.835878	0.710817	1.142653	0.732231	0.620538
0.29209	0.269753	0.23607	0.533908	0.688078	0.476582	0.790809	0.322256	0.939835	0.430244	0.452659	0.821423	1.040304	1.51618	1.073429	0.856606
0.887185	1.025593	0.974944	1.104728	0.89539	0.86417	1.232845	0.519899	0.922632	0.369769	0.462304	0.813902	0.179787	0.54228	0.131124	0.199415
0.988552	0.956157	0.907557	1.062051	0.949143	0.792032	1.200314	0.532092	0.917262	0.408588	0.588907	0.843346	0.252693	0.522921	0.154025	0.14737
1.030315	1.042914	0.959675	1.148543	0.908984	0.719521	1.085126	0.449273	1.179252	0.515525	0.927929	1.158833	1.06196	1.564636	1.193938	0.939466
0.307357	0.362303	0.429019	0.612495	1.365996	1.251932	1.608028	0.730764	1.605044	0.717028	1.459219	1.695297	0.463118	0.787536	0.577401	0.495078
1.359637	1.556827	1.47596	1.569119	0.940439	0.863654	1.167656	0.506338	1.193038	0.487043	0.821736	1.127473	0.482682	0.855635	0.524935	0.455873
1.008951	1.074803	1.165834	1.338572	0.983393	0.906854	1.369811	0.535847	1.335939	0.567759	0.725811	1.086781	0.391	0.807964	0.483582	0.423006
1.34014	1.376286	1.515587	1.625537	0.787544	0.718465	1.018716	0.482356	1.618877	0.763451	1.276239	1.606446	0.5439	0.998931	0.804662	0.666358
1.008951	0.905461	1.081403	1.15492	1.523888	1.395467	1.809574	0.79029	1.740646	0.783663	1.145424	1.514928	-0.409454	-0.132307	-0.395093	-0.079757
1.423165	1.454861	1.509803	1.557687	1.109748	0.993369	1.374597	0.59511	1.843077	0.837789	1.502917	1.78904	0.99647	1.359876	1.156597	0.988743
0.612599	0.633108	0.851968	1.008407	1.580514	1.455254	1.862821	0.850147	1.945323	0.979958	1.794306	1.930184	0.530151	0.985773	0.701209	0.594749
0.925546	0.746365	0.976948	0.970111	0.724201	0.61837	0.652352	0.299438	2.007729	0.966781	1.939492	2.11161	1.417144	1.876457	1.74612	1.278076
0.158489	0.182996	0.366886	0.617163	1.188922	1.064509	1.365092	0.488108	1.828905	0.810718	1.940371	2.056992	0.87781	1.359876	1.096127	0.831474
0.661604	0.893536	0.819138	1.115056	0.42929	0.363665	0.437404	0.059079	0.854909	0.238298	0.477134	0.748785	0.257251	0.74671	0.347437	0.376965
0.41735	0.482756	0.490776	0.881527	0.780022	0.56734	0.828305	0.309111	1.08442	0.355208	0.914625	1.162069	0.663071	1.133489	0.6907	0.580494
0.785841	0.943638	0.923112	1.173412	0.728727	0.50984	0.790809	0.32661	1.289302	0.464045	1.063919	1.362694	1.105501	1.731362	1.400703	1.029817
0.727828	0.879108	0.907031	1.15757	0.98421	0.639631	0.906347	0.380427	1.743446	0.845009	1.929657	2.008737	1.467398	2.183495	1.832893	1.27186
1.155505	1.428654	1.360826	1.541542	1.554019	1.402701	1.771287	0.751593	0.889332	0.316565	0.549494	0.930501	0.56518	1.124769	0.65972	0.553781
0.464105	0.505608	0.601821	0.829684	1.337771	1.177084	1.644425	0.657044	1.056231	0.425326	0.953407	1.22278	0.625936	1.11182	0.669957	0.540817
0.933217	1.057887	1.037434	1.13129	1.511266	1.304186	1.608725	0.686406	0.724548	0.232653	0.515582	0.934104	-0.080528	0.409704	-0.230275	-0.002231
0.708732	0.720413	0.75703	0.829684	1.299004	1.09253	1.496316	0.650563	1.117047	0.492698	1.129415	1.442302	0.653112	1.124769	0.700932	0.58647
0.749084	0.963665	0.986184	1.062277	1.549419	1.360297	1.760963	0.751593	0.911774	0.391565	0.709878	1.231594	1.218062	1.754875	1.306318	1.074864
1.116018	1.235189	1.279988	1.299775	1.430331	1.234078	1.608725	0.688464	1.139046	0.533426	1.194646	1.452331	0.636393	1.090492	0.567463	0.677516
0.793541	0.910038	1.041113	1.105137	1.001886	0.724254	0.936757	0.426956	0.679076	0.319385	0.412245	0.901483	0.42261	0.821772	0.425567	0.416979
1.115153	1.181568	1.272928	1.363267	1.136319	0.936462	1.297532	0.568182	1.001024	0.506991	0.926328	1.372852	0.069065	0.518005	0.104046	0.266415
0.891348	1.211945	1.171169	1.221023	1.399458	1.247941	1.532296	0.631623	0.995269	0.473398	1.015529	1.432263	0.51825	1.030218	0.639512	0.59937
1.094559	1.331506	1.253635	1.258097	1.611066	1.445143	1.88263	0.770525	0.856598	0.360453	0.873834	1.262602	0.186277	0.607016	0.150177	0.352063
0.625582	0.983657	0.934835	1.067179	0.962183	0.893946	1.139195	0.502729	1.492166	0.713126	1.836264	2.097671	0.145497	0.659346	0.022284	0.377486
1.256657	1.583673	1.550769	1.59557	0.962183	0.851467	0.902963	0.419935	1.211486	0.63231	1.344281	1.721969	0.657475	1.108611	0.742718	0.67636
0.749084	1.078212	1.108116	1.221023	1.245389	1.078397	1.370142	0.568182	0.470815	0.210333	0.115409	0.748785	0.723933	1.210569	0.66045	0.625111
1.157017	1.715163	1.563299	1.588445	1.272974	1.233306	1.482679	0.656719	0.92383	0.650618	0.829401	1.402482	0.00498500000000002	0.402242	-0.060491	0.176705
0.578355	0.894554	0.955437	1.126487	1.281142	1.148831	1.321471	0.608104	0.767765	0.57222	0.671472	1.116894	0.080414	0.527589	0.100986	0.260578
0.718626	1.057887	1.01776	1.163167	0.817648	0.766622	0.700525	0.419935	0.904347	0.679738	0.982468	1.452843	0.750823	1.377043	0.884987	0.788222
0.934777	1.158084	1.178501	1.363267	0.999894	1.021869	1.131622	0.648578	0.936168	0.686691	0.961165	1.422659	0.79436	1.471226	1.078616	0.898843
0.774637	1.00342	0.87654	1.010011	0.888244	0.894989	1.09127	0.590053	1.001024	0.706202	1.077731	1.63219	1.057997	1.790039	1.301828	1.087096
0.612138	0.863701	0.722779	0.90352	0.573086	0.428717	0.614609	0.412076	1.216426	0.746466	1.188323	1.721969	0.717516	1.377043	0.803432	0.800844
0.315097	0.511327	0.5443	0.693661	1.008847	0.909446	1.08414	0.60525	1.380439	0.826628	1.633548	1.968818	-0.591032	0.019746	-0.53154	-0.14623
0.16951	0.329378	0.306745	0.463948	1.453185	1.527829	1.63015	0.816287	0.853199	0.64259	0.992018	1.372852	0.434118	1.129443	0.681357	0.560021
1.297504	1.455606	1.349727	1.410487	0.969295	0.993848	1.010666	0.53873	1.089457	0.656599	1.119091	1.472356	0.181319	0.835302	0.406909	0.462549
0.253455	0.295726	0.430583	0.523914	1.545042	1.570122	1.755901	0.776712	1.560004	0.959345	1.949075	2.142543	-0.366974	0.172718	-0.28637	-0.076928
1.118095	1.420002	1.212575	1.262928	1.292347	1.247175	1.397791	0.628909	1.577298	0.919761	1.931848	2.164372	0.738294	1.320954	0.955189	0.721484
0.271207	0.488464	0.441329	0.585959	2.086172	2.087556	2.293456	0.988885	1.067425	0.5972	1.211709	1.591426	0.404219	0.975686	0.487986	0.416979
0.615025	0.873969	0.822491	0.84077	1.039369	1.008132	0.927003	0.501269	1.089457	0.708995	1.526248	1.769714	0.429713	1.061952	0.621358	0.488648
0.271207	0.283651	0.347876	0.341835	1.008847	0.965987	1.044021	0.482548	0.875587	0.5972	1.167056	1.472356	-0.277827	0.312426	-0.124892	0.05247
1.138566	1.335947	1.138454	1.094443	1.552428	1.485573	1.665637	0.666326	-0.251192	-0.089259	-0.667405	-0.004104	-0.292561	0.251196	-0.197716	0.00640199999999999
-0.204102	-0.033219	0.027691	0.085076	0.674369	0.573304	0.604906	0.258476	-0.254346	-0.091904	-0.699986	-0.00619899999999998	0.814409	1.40197	1.12778	0.871109
0.602965	0.939207	0.879063	0.800669	0.6038	0.489633	0.485836	0.231072	0.016724	0.194649	-0.158681	0.472351	-0.426123	0.033412	-0.253854	-0.072178
0.016333	0.05171	0.448224	0.254417	0.982607	0.64811	0.900781	0.38199	0.219403	0.753351	0.574927	0.885865	0.887601	1.350166	1.254745	0.715778
0.661083	0.652214	0.988778	0.72761	1.620203	1.094112	1.47289	0.55031	0.175701	0.872038	0.757309	0.880611	-0.00119900000000006	0.319247	0.193563	-0.090744
0.246923	0.14221	0.468159	0.385103	0.961766	0.219139	0.550895	0.199139	0.284584	0.586338	0.610292	0.726013	0.823028	1.146216	1.00473	0.450142
-0.275546	-0.120363	0.218192	0.161963	1.296402	0.733991	1.127212	0.435605	0.534363	0.590137	0.99467	1.067461	0.90078	1.258047	1.104892	0.5599
0.25728	0.511358	0.657838	0.560979	0.576695	0.079754	0.165115	0.140784	0.539602	0.625399	1.229445	1.278908	0.679313	1.074335	0.834903	0.393035
-0.00963999999999998	0.378428	0.468063	0.373306	0.754607	0.342987	0.476342	0.183064	0.338857	0.372701	0.779149	0.953182	0.376974	0.883337	0.552838	0.238341
-0.404045	-0.010007	0.0763	-0.015451	1.23023	0.885142	1.136695	0.463944	0.292901	0.265677	0.826625	0.914197	-0.541391	-0.151531	-0.541711	-0.530264
-0.411653	0.097822	0.0651079999999999	-0.100473	0.704639	0.353588	0.598186	0.169938	0.408656	0.273105	0.864727	1.04896	0.262676	0.875764	0.3483	0.056047
-0.396293	0.0912740000000001	0.0142960000000001	-0.042067	1.279294	0.899616	1.172814	0.441738	0.144199	-0.014302	0.281331	0.618009	0.494287	0.935599	0.491041	0.257078
-0.642149	-0.242229	-0.229207	-0.389469	0.744477	0.406105	0.560846	0.225178	0.256105	-0.022031	0.499167	0.736302	0.507956	1.088107	0.713377	0.366708
0.535358	0.884523	0.78077	0.540568	0.494793	0.124832	0.20914	0.060864	-0.123454	-0.241476	-0.071901	0.311475	0.697682	1.320954	0.914803	0.482394
0.127151	0.446047	0.458508	0.194333	0.993879	0.630137	0.756233	0.31847	0.040425	-0.094432	0.061486	0.367216	0.261274	0.955481	0.611795	0.281513
-0.006992	0.419142	0.29619	0.050183	0.804406	0.390773	0.483837	0.181248	-0.011027	-0.189917	0.026045	0.311475	0.553051	1.202065	0.955189	0.534006
-0.425697	-0.077337	-0.120172	-0.251796	0.774364	0.493462	0.438901	0.088178	-0.469519	-0.454171	-0.9019	-0.421273	0.306018	1.048844	0.611795	0.378464
-0.012637	0.356187	0.285773	0.08562	1.339001	0.926709	0.940021	0.361849	-0.235619	-0.4215	-0.533389	-0.095181	0.248684	0.821772	0.428904	0.176705
-0.64359	-0.273791	-0.256036	-0.424387	1.319873	1.093331	1.251579	0.380276	-0.420549	-0.429656	-0.602332	-0.14707	0.972775	1.613916	1.287065	0.721484
-0.56508	-0.227904	-0.173929	-0.460573	1.083967	0.770506	0.911886	0.335847	0.054434	-0.182015	0.080038	0.43035	0.337071	0.855153	0.438126	0.130833
-0.493595	-0.294785	-0.185652	-0.377729	1.484059	1.218912	1.501094	0.54792	-0.140598	-0.317059	-0.375831	0.040635	-0.013316	0.565072	-0.084439	-0.039753
-0.068727	0.201984	0.203722	-0.061033	0.83494	0.543193	0.644662	0.190948	0.049581	-0.26539	-0.406374	0.13245	-0.071674	0.551045	0.037126	-0.053526
-0.493595	-0.387235	-0.267999	-0.476495	0.523809	0.134976	0.17234	-0.00223200000000001	0.302168	-0.076327	0.232582	0.635121	0.00286199999999998	0.584292	0.045717	-0.034787
0.045244	0.177046	0.203248	-0.184275	0.523809	0.192538	0.132779	-0.029698	-0.160875	-0.289372	-0.541971	0.031454	-0.130254	0.489743	-0.067787	-0.14623
-0.084953	0.026528	0.120369	-0.099191	0.714609	0.528096	0.254739	0.11938	0.715657	0.180057	0.820389	1.130594	0.518969	1.254271	0.783041	0.429635
-0.107673	0.152121	0.202955	-0.049912	0.684391	0.34461	0.254739	0.139819	-0.084293	-0.128296	-0.491714	0.151908	-0.0115	0.679027	0.208691	0.054711
-0.03443	-0.099161	0.172493	-0.049354	1.004282	0.755808	0.681961	0.256899	0.357171	0.497798	0.293558	0.788738	0.092008	0.706551	0.158996	0.060229
0.345305	0.3691	0.530028	0.376085	0.864408	0.68426	0.45017	0.277045	0.405718	0.710965	0.468875	0.894478	-0.025884	0.395377	-0.035563	-0.159554
-0.040654	-0.112402	0.244442	0.158086	0.903958	0.713881	0.565184	0.22848	0.322053	0.604264	0.409148	0.861662	0.286665	0.848446	0.281174	0.085245
0.174108	0.185746	0.346924	0.352482	0.854811	0.783119	0.492147	0.188931	0.336485	0.406066	0.311806	0.771021	0.225209	0.733988	0.263004	0.093117
0.495661	0.403015	0.603284	0.521974	1.055436	0.923878	0.572084	0.195183	0.228972	0.288659	0.05484	0.680236	-0.025884	0.362681	-0.00343	-0.084942
0.350881	0.397177	0.563034	0.450526	0.775098	0.669411	0.258123	0.164956	0.319226	0.232059	0.244677	0.651755	-0.426439	-0.057375	-0.538914	-0.440794
0.39451	0.454421	0.521414	0.462187	1.187198	1.050315	0.886918	0.329594	0.327831	0.183546	0.287329	0.696839	-0.456405	-0.150301	-0.638743	-0.422393
0.455939	0.590544	0.685037	0.595084	0.704681	0.654534	0.258123	0.105256	0.249213	0.11633	0.171052	0.720056	-0.217202	0.257516	-0.320288	-0.230135
0.412542	0.539613	0.54285	0.402142	1.069911	0.936462	0.660139	0.302039	0.36368	0.123897	0.220226	0.640448	0.43644	1.051368	0.526461	0.390163
0.165002	0.448643	0.584709	0.341835	0.644391	0.379059	0.146024	0.098339	0.270286	0.041272	-0.03328	0.503551	0.573037	1.336972	0.81421	0.587559
0.222896	0.602612	0.709113	0.514516	1.019651	0.83691	0.700525	0.323674	-0.045174	-0.080609	-0.622066	0.119706	1.014822	1.767301	1.265071	0.935077
1.01382	1.349654	1.224517	1.067179	0.63411	0.379059	0.303936	0.176221	0.400995	0.119452	0.0405820000000001	0.515081	0.734133	1.457156	1.070303	0.778025
0.380115	0.615458	0.711487	0.531066	0.9801	0.821278	0.625187	0.357459	1.017729	0.444653	0.854229	1.433235	0.276589	0.964351	0.473695	0.515621
0.704423	0.939495	0.931102	0.792989	1.914221	1.950039	2.01616	0.850147	0.111086	-0.119536	-0.562963	0.0629729999999999	-0.066022	0.575948	0.17237	0.231089
0.495893	0.669869	0.673838	0.597594	1.198164	1.238091	1.196081	0.562983	1.069155	0.556445	1.236863	1.596759	0.490727	1.238705	0.846192	0.688964
1.194999	1.425607	1.309921	1.1591	1.771238	1.843166	1.880816	0.915746	0.473585	0.123775	0.135529	0.643683	0.734213	1.431383	1.126404	0.901727
0.741594	0.992485	0.863493	0.850753	0.759797	0.84888	0.766401	0.444851	1.259322	0.567759	1.133401	1.60882	0.435422	1.055736	0.815399	0.663343
1.009457	1.244151	1.137089	0.964592	0.800206	0.791246	0.841858	0.414953	0.838494	0.375591	0.171323	0.835052	0.860409	1.564391	1.179726	1.023189
0.449562	0.679557	0.636094	0.578255	1.539729	1.655946	1.726762	0.766485	1.599846	0.797167	1.583969	1.957657	-0.333403	0.332599	-0.137378	0.136596
0.779963	0.922828	0.83918	0.719134	1.482153	1.686457	1.85689	0.824484	1.556817	0.817547	1.535062	1.957657	-0.333403	0.284357	0.020392	0.216958
0.988019	1.09362	1.070932	1.095564	1.114437	1.12483	1.143629	0.61892	1.429328	0.735935	1.093228	1.662714	-0.180407	0.366554	0.145737	0.270471
1.216247	1.439138	1.347166	1.24873	1.833599	2.005449	2.065258	1.024425	0.982467	0.503084	0.360746	1.084605	0.629306	1.30853	1.100498	0.927556
1.237981	1.476975	1.250139	1.238339	1.626511	1.861366	1.898493	0.888413	1.786827	1.078769	1.939492	2.397836	0.79353	1.443024	1.34736	1.01981
1.259337	1.564267	1.308533	1.394479	1.088467	1.31113	1.167656	0.589397	0.803659	0.60527	0.62061	1.383267	1.39068	2.329093	2.011289	1.619753
0.946596	1.29814	0.927509	1.115365	1.604003	1.807595	1.792748	0.840884	1.201851	0.921525	1.310376	1.980141	0.357458	1.113717	0.764356	0.746393
0.741594	1.19291	0.691196	1.083034	1.111448	1.248985	1.061791	0.584351	1.133796	0.763356	1.301636	1.885708	0.405435	1.321007	0.879008	0.860105
1.399342	1.754023	1.264442	1.575663	1.078692	1.191562	0.973767	0.660996	0.146187	0.255504	0.028604	0.802893	1.080466	1.89054	1.466238	1.215328
0.950162	1.260256	0.79185	1.15757	1.076752	1.19105	0.772508	0.654633	0.692983	0.633414	0.87791	1.573733	1.250563	2.139813	1.848891	1.408919
1.683172	2.055144	1.551228	1.819913	1.824233	1.960454	1.907047	1.058118	0.455334	0.57883	0.528464	1.341427	0.710817	1.504026	1.051109	0.880871
0.993045	1.358341	0.974339	1.320541	1.085635	1.345349	1.007273	0.776719	1.028996	0.919713	1.366469	1.966785	1.509645	2.225589	1.861661	1.442352
0.974896	1.2472	0.856719	1.220949	1.275558	1.667958	1.164476	0.858326	1.056908	0.851446	1.666455	2.205193	0.90438	1.672324	1.3476	1.096837
0.470639	0.754702	0.40044	0.786449	0.884934	1.120738	0.494355	0.642827	0.386892	0.559567	0.528464	1.392016	1.192351	1.981247	1.700121	1.256923
1.537926	1.838421	1.368834	1.657935	1.31406	1.554527	1.200917	0.916197	0.608285	0.668666	0.992018	1.723961	0.944084	1.648123	1.336016	1.054947
1.017837	1.225874	0.79134	1.17963	0.963887	1.26053	0.764123	0.718675	0.859706	0.709475	1.098423	1.754869	1.804675	2.539958	2.238707	1.623631
1.51736	1.892888	1.394765	1.714094	1.212952	1.497251	0.920788	0.845306	0.843927	0.730112	1.211709	1.863881	1.614851	2.423269	2.169399	1.512517
1.137496	1.472648	1.080163	1.408724	0.993879	1.26053	0.80401	0.834963	0.357171	0.447678	0.648826	1.261352	1.602507	2.412841	2.182722	1.55729
1.237754	1.683302	1.181384	1.45543	0.894437	1.204754	0.729606	0.797734	0.767765	0.750702	1.293512	1.832946	0.707218	1.455928	1.205288	0.910162
0.837793	1.274684	0.780114	1.132597	1.469648	1.843024	1.505364	1.049356	0.882052	0.697145	1.324325	1.792729	0.9878	1.791844	1.418475	1.190764
1.636335	2.061856	1.482712	1.79668	1.142342	1.510672	0.997439	0.901063	0.403456	0.490655	0.79858	1.302455	-0.092617	0.623714	0.277345	0.383483
0.998731	1.568693	1.126757	1.429208	0.883651	1.218703	0.681961	0.780004	0.449525	0.504935	1.051543	1.581614	0.656343	1.432551	1.152692	0.922629
1.736398	2.226669	1.675539	1.961493	0.843809	1.108227	0.679527	0.839894	0.502142	0.55808	1.082103	1.531939	1.542228	2.337825	2.086799	1.469661
1.158993	1.572869	1.196407	1.439431	1.309138	1.605705	1.301991	0.993215	0.097011	0.28262	-0.043687	0.66898	0.713792	1.384738	0.998877	0.889606
1.239301	1.778076	1.215652	1.558607	1.072084	1.398942	0.877976	0.858279	0.182104	0.35046	0.495344	1.111637	1.32978	2.040199	1.700121	1.27186
0.700186	1.244526	0.71591	1.117604	0.734706	0.858157	0.367059	0.657937	-0.130398	0.289985	0.177276	0.839716	0.962342	1.719583	1.447953	1.038064
1.279709	1.79363	1.353868	1.552496	0.883651	1.16314	0.761439	0.848159	-0.756713	-0.096159	-0.861054	-0.066164	0.59751	1.210569	1.027083	0.735621
0.627556	1.194787	0.804149	1.134898	1.309138	1.592442	1.265947	0.991138	-0.367828	0.085461	-0.478543	0.248049	0.512809	1.07747	0.895421	0.632036
0.948705	1.580544	1.123879	1.367047	1.100616	1.343151	1.103703	0.94235	-0.205965	0.127	-0.307015	0.378962	-0.246591	0.272101	-0.018545	0.016661
0.49253	1.204459	0.732185	1.027068	1.396169	1.660478	1.48865	1.076435	0.191204	0.394138	0.372908	0.91237	0.680202	1.254271	0.946982	0.684667
0.863279	1.428799	0.907218	1.18575	1.061736	1.412534	0.914797	0.871071	0.646044	0.640871	1.238505	1.670969	0.157924	0.679027	0.485493	0.383766
0.319258	0.92038	0.428914	0.674888	1.534201	1.756654	1.417342	1.031775	0.182104	0.446964	0.410443	1.050458	-0.215812	0.337828	0.031018	0.133839
0.962832	1.589641	1.038469	1.304737	1.002176	1.094112	0.679527	0.744795	0.600658	0.626854	0.702092	1.302455	0.010123	0.699039	0.381718	0.344098
0.563567	1.219428	0.703225	0.9836	0.902954	1.025486	0.481887	0.67174	0.623377	0.626854	0.982468	1.472182	0.288603	0.76744	0.650549	0.488471
1.141041	1.754454	1.138583	1.433872	1.0709	1.20506	0.637649	0.788002	0.833526	0.71445	1.475021	1.828372	-0.158708	0.33019	0.14144	0.136234
0.703045	1.385204	0.784393	1.030565	1.393752	1.521417	1.176126	0.946733	0.059927	0.344349	0.37221	0.966604	-0.292561	0.221889	0.028613	0.103743
0.630927	1.325604	0.710866	0.919477	0.922595	1.039719	0.598186	0.695412	-0.286084	0.075038	-0.227007	0.433176	0.00498500000000002	0.518005	0.303593	0.201281
0.259084	0.923198	0.286249	0.64659	1.225258	1.247303	0.859027	0.771846	-0.11305	0.194649	0.220842	0.848407	0.724876	1.283045	1.157626	0.838596
0.93045	1.657985	0.960835	1.177508	0.892854	1.027004	0.476342	0.593698	-0.275019	0.097848	0.076787	0.663369	0.943637	1.601858	1.419682	0.993501
0.811064	1.494362	0.861131	1.012933	0.401482	0.491091	-0.222768	0.414067	-0.496333	0.004413	-0.336221	0.292079	0.621961	1.069502	0.935291	0.57295
1.262617	1.821138	1.131906	1.295399	0.410581	0.516891	-0.183412	0.432123	0.008949	0.243132	0.450137	0.870392	0.477801	0.935853	0.691275	0.534104
0.652128	1.209302	0.639613	0.800959	1.313591	1.589319	1.205532	0.895207	-0.47084	-0.081474	-0.544186	0.099038	0.211127	0.72028	0.578895	0.377486
0.712204	1.412373	0.720089	0.955313	0.559188	0.766422	0.126129	0.466294	0.083467	0.224545	0.44435	0.89871	1.212732	1.908783	1.716836	1.119828
0.453545	1.083226	0.397496	0.742694	0.853656	1.041234	0.435543	0.652545	-0.595192	-0.117871	-0.514082	0.15044	1.076039	1.825584	1.59414	1.144148
0.41459	1.131923	0.528711	0.718131	0.410581	0.751725	0.049904	0.473874	0.391301	0.462013	1.059366	1.492338	0.324894	1.022571	0.813726	0.57295
0.336774	0.97232	0.407653	0.563641	1.14722	1.424962	0.937283	0.836456	-0.607347	-0.169762	-0.632531	0.047524	-0.337358	0.221889	0.028613	0.057653
0.242161	0.977534	0.337348	0.527909	1.16646	1.342991	0.934598	0.746813	-0.744	-0.247494	-0.872596	-0.173755	0.502915	1.056427	0.712079	0.547072
-0.272427	0.52608	-0.0158269999999999	0.314064	0.342824	0.587924	-0.145184	0.347645	-0.286084	0.024551	-0.034522	0.578642	0.486931	1.129443	0.742718	0.592555
-0.372507	0.321571	-0.20815	0.111335	0.863588	1.165472	0.549054	0.621593	-0.397646	-0.027174	-0.204468	0.370526	1.140698	1.613916	1.298016	0.916101
-0.340873	0.475714	-0.117781	0.063383	0.70697	1.028758	0.395013	0.594286	-0.669424	-0.130457	-0.374355	0.162552	0.711096	1.312312	1.005069	0.6373
0.065403	0.977534	0.357597	0.492204	0.697535	0.906373	0.432379	0.645645	-0.211566	0.073352	0.323742	0.719293	1.668477	2.255914	2.038351	1.346434
-0.426692	0.49353	-0.064407	0.100071	0.473195	0.622008	-0.069246	0.406347	-0.768456	-0.217629	-0.522536	0.072057	0.799268	1.253222	0.944973	0.669574
-0.465182	0.402926	-0.205157	-0.029664	0.622147	0.666656	0.120436	0.423412	-0.87959	-0.318711	-0.602332	-0.109369	0.995646	1.454867	1.364302	0.809995
-0.573199	0.409051	-0.298351	-0.148396	1.308965	1.424833	1.032633	0.679036	-0.669158	-0.251274	-0.298229	0.147708	0.231973	0.70409	0.521981	0.32898
0.076482	0.850969	0.155534	0.290459	0.475307	0.525996	0.00695799999999996	0.309697	-0.583098	-0.294619	-0.222671	0.133076	0.607319	1.081024	0.99491	0.617954
-0.001272	0.812873	0.145929	0.088971	1.019473	1.002223	0.696689	0.574524	-0.570814	-0.294619	-0.133028	0.198786	0.550907	1.008506	0.9248	0.573136
-0.256483	0.535143	-0.115236	-0.029664	0.680101	0.622008	0.273967	0.326916	-0.337759	-0.176133	0.19187	0.49554	1.209996	1.755985	1.720287	1.044478
-0.195109	0.64925	0.0462899999999999	0.041248	0.524344	0.485508	0.19714	0.247476	-0.424021	-0.278595	0.168604	0.390246	0.865501	1.291397	1.204161	0.783801
-0.272427	0.371046	-0.18419	-0.231834	0.689337	0.662529	0.273967	0.30921	-0.47313	-0.321691	0.12727	0.32436	-0.176319	0.214992	0.050835	0.041773
-0.395446	0.244478	-0.18419	-0.315393	0.651116	0.596498	0.272963	0.308749	-0.851476	-0.474656	-0.462891	-0.202564	-0.103257	0.491349	0.290451	0.15576
0.24718	0.780402	0.229037	0.06579	0.408507	0.243293	-0.032292	0.176513	-0.157357	-0.121044	0.586226	0.626249	0.634329	1.199191	1.054653	0.630777
-0.050436	0.693055	0.149015	0.00577900000000001	0.564263	0.435156	0.158043	0.229151	-0.155302	-0.136746	0.479692	0.619418	0.375364	0.883337	0.724708	0.400463
-0.326788	0.124007	-0.371916	-0.531398	0.457522	0.323896	-0.108814	0.132512	-0.558592	-0.482871	-0.341937	-0.034472	0.535233	1.021712	0.954858	0.605112
-0.304009	0.181464	-0.299996	-0.469833	0.504328	0.374002	0.044894	0.203406	0.025903	-0.077904	0.699604	0.897187	0.375364	0.717868	0.804645	0.419282
-0.17898	0.358675	-0.0826749999999999	-0.305538	0.182555	0.0752309999999999	-0.300302	0.0444339999999999	-0.094761	-0.144609	0.402079	0.580558	-0.424205	0.032357	0.138937	-0.076758
0.120732	0.605356	0.0483020000000001	-0.257252	0.368158	0.308459	-0.069991	0.115009	-0.546306	-0.339145	-0.125507	0.055449	-0.161664	0.338509	0.370587	0.019167
0.535358	1.003652	0.458259	0.218985	0.854984	0.85723	0.652528	0.308312	-0.435764	-0.42372	-0.331094	-0.034472	0.433808	0.96225	1.034995	0.547309
-0.217747	0.326825	-0.032061	-0.341059	0.641982	0.58612	0.462319	0.229151	-0.152959	-0.211506	0.155258	0.45649	0.0723940000000001	0.523451	0.450856	0.211591
-0.062491	0.409051	-0.022895	-0.269991	0.582367	0.515759	0.235538	0.185454	-0.179133	-0.195651	0.198467	0.491343	0.480596	1.088107	0.944973	0.572817
0.584944	1.06996	0.558489	0.254418	-0.131984	-0.182644	-0.531242	-0.105854	0.348593	0.119003	1.114624	1.23738	-0.0155110000000001	0.477149	0.410706	0.120359
0.222894	0.614665	0.236354	-0.068598	0.756856	0.677371	0.468078	0.301585	-0.361928	-0.243306	-0.054557	0.300609	-0.366271	0.170733	-0.00464400000000001	-0.017132
0.16636	0.608908	0.166445	-0.09186	0.426181	0.268073	0.045478	0.0987250000000001	-0.718035	-0.599554	-0.647876	-0.202041	-0.396156	0.172718	-0.092646	-0.002231
0.026539	0.264383	-0.064407	-0.282748	0.284387	0.1785	-0.14703	-0.187631	-0.668632	-0.449996	-0.598866	-0.124537	-0.395861	0.063456	-0.294073	-0.192714
-0.197931	0.251899	-0.064407	-0.186184	0.627727	0.486204	0.117662	-0.133652	-1.364503	-0.891043	-1.456828	-0.847739	-0.499225	-0.059237	-0.359328	-0.234764
0.266794	0.55297	0.358182	0.101181	0.373736	0.154095	-0.223372	-0.305315	-0.874478	-0.709379	-0.728213	-0.241054	-0.706674	-0.182571	-0.619788	-0.426463
0.297374	0.66346	0.558489	0.266577	0.391025	0.138381	-0.33864	-0.187718	-0.912966	-0.658118	-0.835645	-0.215273	-1.035212	-0.524196	-0.997062	-0.71639
-0.125208	0.097139	-0.0158269999999999	-0.138047	0.903008	0.813547	0.623085	0.172723	-0.864809	-0.66724	-0.835645	-0.253823	-0.278091	0.204537	-0.076153	-0.034787
0.072593	0.502579	0.255956	0.063383	0.825289	0.758379	0.430868	0.0916359999999999	-0.89144	-0.735933	-1.102893	-0.408604	-0.263116	0.359084	-0.076153	-0.007305
0.455939	0.669086	0.518934	0.40968	0.77579	0.699401	0.202997	0.137071	-0.829484	-0.632969	-0.894298	-0.214745	0.59751	1.411714	0.854523	0.625111
0.293178	0.630349	0.529276	0.36201	0.932018	0.807389	0.591928	0.236379	-0.657065	-0.503415	-0.673338	0.032913	-0.396552	0.286661	-0.279425	-0.081139
-0.371255	-0.058664	-0.084229	-0.228454	0.873291	0.74023	0.474592	0.217632	-0.681762	-0.519895	-0.760743	0.02292	-0.456323	0.207197	-0.29548	-0.243701
0.325142	0.523925	0.449216	0.230438	0.666319	0.501766	0.130375	0.083219	-0.794334	-0.536407	-0.861054	-0.251193	-0.113552	0.626099	0.08641	0.122701
-0.322202	-0.077337	-0.070978	-0.20105	0.591494	0.383949	-0.145563	0.113447	-0.916579	-0.446659	-0.983378	-0.317964	-0.561151	0.066541	-0.457906	-0.300075
-0.263183	-0.011932	0.174905	-0.054487	0.524344	0.180831	-0.455698	-0.077698	-0.851476	-0.151803	-0.686683	-0.202564	0.226885	0.681524	0.213589	0.016661
0.093265	0.103629	0.326559	0.147812	0.562421	0.358643	-0.417228	0.085703	-1.120598	-0.264846	-1.02332	-0.408271	0.314631	0.848811	0.438126	0.207012
0.606275	0.829722	1.004842	0.776392	0.912613	0.728943	0.164075	0.429694	-0.828158	-0.046496	-0.773998	-0.201287	0.12176	0.602231	0.092431	-0.015961
0.427925	0.585894	0.721496	0.527909	0.824706	0.658606	-0.028226	0.374893	-0.754771	-0.031046	-0.644956	-0.110792	0.402069	0.848811	0.509642	0.239678
1.026708	1.248039	1.242203	1.034635	0.620583	0.562104	-0.261722	0.46011	-0.546351	0.297345	-0.309241	0.043155	0.240953	0.480975	0.285548	0.054711
0.048943	0.547157	0.548735	0.491489	0.373736	0.57712	-0.648761	0.741249	-1.334393	0.11214	-1.305756	-0.962695	0.4732	0.717868	0.512786	0.068352
-0.178607	0.244478	0.558128	0.375196	0.462764	0.308459	-0.794961	0.723067	-1.092925	0.456868	-0.47174	-0.42754	0.864308	0.886218	0.81563	0.207012
-0.413572	-0.569518	0.326982	0.112146	0.48575	0.026088	-0.754414	0.355762	-1.804295	0.199687	-1.63555	-1.328167	0.907663	0.96944	0.784033	0.224895
0.803909	0.606585	1.296857	1.054895	0.98363	0.685116	-0.223467	0.492862	-0.140899	1.03845	0.856206	0.840004	0.457721	0.58382	0.325969	-0.069049
0.233434	0.132237	0.725855	0.754265	1.153433	1.072279	-0.030603	0.745286	-0.50727	0.619838	-0.058472	0.11334	0.839188	1.129443	0.77283	0.297206
0.178044	0.326647	0.657287	0.955775	0.749742	0.975912	-0.417764	0.633898	-0.245174	0.71445	0.257356	0.580558	0.571331	1.017085	0.44456	0.270471
-0.388657	-0.427089	0.025625	0.42689	1.658785	2.025261	0.766863	1.230093	-0.436924	0.420544	0.000577000000000001	0.45363	-0.744353	-0.228433	-0.787328	-0.543846
0.603034	0.752454	0.932804	1.274843	0.843954	1.358297	-0.336281	0.828715	-0.166089	0.485544	0.18951	0.74436	0.557626	1.359876	0.690679	0.565328
0.453545	0.597397	0.865445	1.245793	2.093225	2.630553	1.338155	1.456422	-0.39615	0.331219	-0.25661	0.480573	-0.152269	0.643924	-0.148166	0.048528
0.907292	1.005784	1.107906	1.611872	1.266759	1.964601	0.429912	1.045961	0.615802	0.818371	1.119582	1.723119	0.829732	1.976453	1.103681	0.902583
0.739778	1.04817	1.033724	1.636209	1.249469	1.995726	0.357906	1.0565	-0.102621	0.37704	-0.203971	0.782687	1.700665	2.838758	2.001846	1.461164
1.037062	1.244526	1.251082	1.872861	0.933175	1.72414	-0.046142	0.973685	0.049581	0.410871	0.103187	1.094594	1.517358	2.74145	1.807468	1.393525
0.649537	0.776068	0.947297	1.565927	1.564008	2.356138	0.797377	1.28853	0.814862	0.831953	1.385231	2.18035	0.236432	1.358338	0.514943	0.539337
1.337463	1.472648	1.462833	2.092873	1.60495	2.449771	0.961595	1.330873	0.164048	0.46136	0.401579	1.363208	0.471526	1.600365	0.80373	0.645463
1.317691	1.336954	1.463822	2.059206	2.122101	3.152501	1.751641	1.529449	1.089457	0.832611	1.911599	2.671067	-0.112677	1.01207	0.045717	0.216958
1.716957	1.875856	1.899038	2.51169	2.104056	3.070946	1.556517	1.537183	0.67735	0.639309	1.356145	2.265005	1.092326	2.354163	1.31313	1.111711
1.800112	1.892888	1.851437	2.476617	2.223838	3.296082	1.680047	1.642197	-0.021986	0.345848	0.197247	1.394552	0.246466	1.407879	0.516714	0.531731
1.719373	1.734711	1.725984	2.449929	2.175899	3.255321	1.644091	1.583442	0.332115	0.506991	0.485396	1.796622	0.710457	1.961631	0.875451	0.847533
0.590695	0.875937	0.93577	1.747362	2.205909	3.255321	1.762577	1.624933	0.795285	0.852291	1.395584	2.665511	1.286775	2.654291	1.477349	1.268299
1.597746	1.907639	1.781567	2.538325	2.007939	3.081791	1.401615	1.514306	0.779157	0.865825	1.268566	2.589689	2.109	3.72112	2.418049	1.993471
0.793541	1.200455	1.212575	2.085286	2.283841	3.469669	1.566675	1.595709	0.647477	0.826628	1.225074	2.621632	1.627177	3.336834	2.02814	1.778274
1.858013	2.025835	1.924829	2.724115	2.689194	3.895955	2.192778	1.866287	0.131423	0.490082	0.296971	1.792598	1.218062	2.994359	1.749725	1.493954
1.538513	1.770346	1.744546	2.556414	3.070594	4.299568	2.592398	2.031864	0.401066	0.780838	0.579884	2.099523	1.676303	3.411374	2.209678	1.846068
1.537466	1.78973	1.675539	2.547029	2.5345	3.824187	2.075274	1.830317	0.856598	0.93927	1.285657	2.728222	1.057997	2.79018	1.559668	1.371592
1.257452	1.498414	1.413767	2.299271	2.223685	3.349798	1.65929	1.678248	0.539696	0.738379	0.852223	2.268926	1.101095	2.847956	1.671163	1.428889
2.313854	2.321294	2.313713	3.092228	1.73532	2.808211	1.061791	1.460808	-0.362639	0.339461	-0.46135	1.270261	0.85756	2.475269	1.342726	1.093505
1.759726	1.703251	1.663378	2.573742	2.057138	2.989929	1.301757	1.530496	0.14043	0.608687	0.271266	1.907808	1.989567	3.767906	2.609725	1.979145
2.332272	2.372902	2.26917	2.958957	2.537392	3.541779	1.96391	1.72074	0.616278	0.869605	1.008381	2.48932	0.548757	2.16861	0.895421	0.755624
1.537131	1.649619	1.588824	2.353379	2.165007	3.213957	1.446707	1.471243	0.063967	0.505183	-0.034292	1.695297	0.695069	2.38016	1.201415	0.914212
1.576541	1.821138	1.675546	2.450253	2.712578	3.601744	1.952835	1.740453	-0.394365	0.210993	-0.483635	1.241941	0.923612	2.563954	1.442469	1.109048
1.33868	1.455626	1.434459	2.14326	2.083249	3.055911	1.438009	1.491952	0.186175	0.588049	0.684369	2.088674	0.239269	1.802312	0.567463	0.483564
2.01252	2.421126	2.339962	2.869889	2.130493	3.005452	1.47826	1.517572	0.434829	0.742151	0.982468	2.378033	0.471017	2.084828	0.895421	0.622394
0.962832	1.30099	1.318677	2.047984	1.995344	2.785718	1.281253	1.430482	-0.531685	0.265677	-0.667405	1.050458	1.644022	3.387474	2.308784	1.700571
1.065758	1.396736	1.363945	1.997452	1.502271	2.305248	0.726911	1.202215	0.200349	0.655688	0.275276	1.851691	0.992575	2.631546	1.663937	1.254106
0.570597	0.900523	0.963269	1.636489	1.820012	2.644333	1.157182	1.361167	0.601219	0.86414	0.97318	2.443577	1.560047	3.236576	2.171073	1.610922
0.985549	1.464614	1.295523	1.89927	1.520948	2.435399	0.764123	1.24591	0.683797	0.980917	1.082103	2.491971	1.614361	3.301739	2.281055	1.667229
0.76918	1.0264	1.013166	1.681158	1.240931	2.160502	0.370627	1.085208	0.376974	0.812526	0.536591	2.026986	0.855176	2.578577	1.611373	1.112509
1.16586	1.568231	1.43928	2.060489	1.221132	1.977798	0.25004	1.05426	0.765967	0.949508	1.024985	2.397898	0.31993	1.964679	0.945666	0.699336
0.620435	1.062609	1.068463	1.7407	1.648427	2.30992	0.670312	1.240065	1.211211	1.220263	1.968958	3.22322	0.349285	1.813409	0.793292	0.475696
1.187777	1.708718	1.495412	2.098155	1.467939	2.220424	0.517411	1.134317	0.528369	0.816136	0.920754	2.248272	0.809766	2.299294	1.379093	0.894162
0.599238	0.867398	0.829073	1.445917	0.539745	1.254276	-0.771743	0.664738	0.440235	0.670125	0.925142	2.305235	0.519627	1.998881	0.965491	0.750243
0.85276	1.305764	1.128878	1.603404	1.039104	1.694599	0.049904	0.931629	-0.131524	0.376427	0.106835	1.630351	0.30174	1.74414	0.84413	0.56061
0.449136	0.733068	0.757166	1.272421	1.086802	1.784378	0.166202	0.922241	-0.411482	0.176728	-0.295006	1.255847	0.271437	1.767814	0.904688	0.58647
0.202821	0.793384	0.835371	1.304022	1.191368	1.810345	0.125182	0.911662	-0.534088	0.11365	-0.480039	1.024533	0.300456	1.860109	0.985292	0.651913
0.0826440000000001	0.507779	0.518192	1.147405	1.143961	1.797372	0.164075	0.911662	-0.42463	0.189156	-0.222671	1.268545	0.300456	1.755985	0.87445	0.495078
0.389221	1.013181	0.965281	1.429255	1.134538	1.772129	0.047492	0.816317	-0.084136	0.373146	0.161915	1.561944	0.2575	1.651669	0.763391	0.527833
0.170108	0.527217	0.408268	0.991443	0.935099	1.592997	-0.223	0.704454	-0.326355	0.2677	0.215373	1.532177	0.386148	1.779629	0.864436	0.61918
0.444725	1.035097	0.877098	1.353642	1.380974	2.014529	0.396525	0.903534	-0.570814	0.0855309999999999	-0.503229	1.116894	0.141454	1.525578	0.602318	0.462345
0.781578	1.16916	1.074345	1.521122	1.162945	1.823298	0.086321	0.781474	-0.988338	-0.099397	-1.09341	0.53462	0.661255	2.021616	1.287065	0.828498
0.213879	1.013181	0.826223	1.374488	0.98363	1.608106	-0.031089	0.693666	-0.766636	0.042548	-0.524876	0.892321	0.841555	2.12395	1.40442	0.846047
0.864663	1.434017	1.278047	1.79532	1.059274	1.608106	-0.031089	0.710207	-0.546135	0.073215	-0.312147	1.08476	0.0829380000000001	1.367253	0.401728	0.168746
1.035647	1.701114	1.53542	1.863198	1.75372	2.291118	1.035235	1.024657	-1.400825	-0.343461	-1.769881	-0.202564	-0.190723	1.068032	0.210447	-0.007305
-0.297863	0.302783	0.300587	0.866298	0.786174	1.356999	-0.184992	0.493494	0.242519	0.503173	0.874015	2.018866	0.996481	2.339822	1.611571	0.916101
0.771033	1.443554	1.237438	1.703655	1.557721	2.06466	0.81065	0.886675	-0.69246	-0.102785	-0.488582	0.908138	-0.219895	1.179036	0.299209	0.109146
-0.669668	-0.138999	-0.077122	0.483965	0.538917	1.098918	-0.61021	0.364885	-1.287502	-0.43613	-1.32969	0.167262	-0.350807	1.00207	-0.028425	-0.029713
0.631982	1.316916	1.120996	1.460208	0.381891	0.886997	-0.685402	0.304668	-1.700228	-0.618861	-2.073459	-0.547874	0.944325	2.445295	1.536273	1.009378
-0.251603	0.308112	0.299376	0.765226	1.697288	2.241007	0.960569	0.963682	-1.493902	-0.494249	-1.627495	-0.138809	0.483604	1.918159	1.294863	0.735621
0.534483	1.227032	1.091226	1.460208	1.060007	1.621377	0.198913	0.68241	-1.189667	-0.336207	-1.22077	0.078188	0.554874	2.021148	1.40442	0.813446
-0.8208	-0.183181	-0.144997	0.383105	0.305942	0.858125	-0.917761	0.261781	0.275064	0.434916	1.109663	2.076104	0.053646	1.58675	0.804645	0.449469
0.517604	1.232074	1.050906	1.392569	0.9107	1.394679	-0.032292	0.510302	-1.359792	-0.535744	-1.438703	-0.037006	1.33182	2.900732	2.094393	1.385101
-0.815677	-0.197406	-0.157032	0.325819	0.390026	0.895834	-0.724758	0.236002	-0.6551	-0.14507	-0.382437	0.814255	-1.000755	0.37715	-0.588457	-0.484738
0.432207	0.991669	0.8846	1.225768	0.21416	0.609837	-1.03085	0.176163	-1.033632	-0.211013	-0.894298	0.398476	-0.061126	1.346962	0.614297	0.273916
-0.213416	0.165208	0.150798	0.460626	1.556496	2.014308	0.919581	0.799019	-1.690419	-0.710383	-1.964029	-0.61092	-0.782556	0.541483	-0.212196	-0.280351
-0.130339	0.451476	0.330212	0.551322	1.247976	1.649854	0.539024	0.636298	-1.447495	-0.585626	-1.657011	-0.355788	-0.233785	1.107368	0.313024	-0.123082
-0.646434	-0.198795	-0.203939	0.12431	0.317921	0.654251	-0.798966	0.126085	-0.280479	0.032623	0.200279	1.169707	1.208427	2.564645	1.897078	1.018153
0.39866	0.976004	0.785159	0.944769	1.097987	1.448961	0.158773	0.474412	-1.200395	-0.428589	-1.032814	0.165286	1.340522	2.782656	2.001347	1.245588
-0.777701	-0.250135	-0.237053	0.078597	1.022844	1.322997	0.08272	0.474412	-0.400868	-0.034059	0.145573	1.09952	-0.795986	0.451086	-0.36392	-0.409489
0.295726	0.853288	0.795344	0.877413	0.0698019999999999	0.385763	-0.994344	0.117423	-1.131635	-0.362385	-0.963687	0.232208	0.269254	1.677914	0.9248	0.416979
-0.867904	-0.390474	-0.283735	-0.088805	0.0494890000000001	0.355329	-1.112739	0.06528	-0.933329	-0.403833	-0.914335	0.253804	-1.191105	0.000923000000000007	-0.727671	-0.769556
-0.844324	-0.0739430000000001	-0.124255	0.036151	0.413499	0.60217	-0.722624	0.167914	-0.064785	-0.0418379999999999	0.485625	1.267158	0.199442	1.537846	0.84413	0.396947
-1.00511	-0.442298	-0.473111	-0.201566	0.592384	0.855371	-0.607037	0.210655	-0.485295	-0.197379	0.015536	0.94611	0.0249010000000001	1.16566	0.614297	0.209088
-0.716298	0.073841	-0.115499	0.069563	0.985843	1.220468	-0.031933	0.398358	-0.76382	-0.279052	-0.352722	0.621959	-0.870526	0.181579	-0.501792	-0.499124
0.25745	0.821748	0.676591	0.754265	0.940203	1.098924	-0.03261	0.457597	-0.813301	-0.353109	-0.656912	0.472106	-0.147342	1.028516	0.397706	0.016661
0.461876	1.002439	0.756243	0.798942	0.122856	0.333258	-1.03085	0.0208389999999998	-1.044761	-0.425529	-0.874889	0.155137	-0.394596	0.713248	0.02018	-0.220724
-0.710313	-0.161864	-0.216154	-0.0677829999999999	1.023946	1.14106	0.0443520000000001	0.36642	-1.175025	-0.618769	-0.943171	-0.025492	-1.040836	-0.029267	-0.693558	-0.713209
-0.549217	0.235137	-0.035814	0.12431	0.553153	0.753587	-0.492874	0.0971089999999999	-0.872296	-0.517275	-0.689482	0.215588	-0.32099	0.691252	0.027221	-0.276149
-0.258608	0.228608	0.023236	0.203438	0.48575	0.686421	-0.531871	0.0533270000000001	-0.885863	-0.441013	-0.746989	0.256196	-0.263642	0.845671	0.27665	-0.094979
-0.665519	0.0164009999999999	-0.097836	0.078597	0.597959	0.81463	-0.339099	0.149611	-0.594368	-0.222753	-0.236711	0.649003	-0.816537	0.21208	-0.374408	-0.527968
-0.156403	0.277114	0.169441	0.325819	0.747315	1.080461	0.00869300000000001	0.281001	-0.65398	-0.26683	-0.483747	0.530097	-1.020853	0.061295	-0.560587	-0.607429
0.208629	0.704596	0.459177	0.530447	-0.170851	0.0942999999999998	-1.317334	-0.227962	-0.545666	-0.242864	-0.017755	0.80433	-0.32141	0.827293	0.236364	-0.034787
-0.534122	-0.235699	-0.254273	-0.097261	0.459683	0.832566	-0.495519	0.018035	-0.509507	-0.318331	-0.183434	0.690134	-0.365938	0.786423	0.181927	0.002954
-0.357986	0.036853	-0.115499	0.081782	0.338343	0.589192	-0.767326	-0.0964879999999999	-1.153481	-0.686241	-1.171101	-0.012164	0.011929	1.198019	0.642536	0.168746
-0.172522	0.202481	-0.0295530000000001	0.191386	0.378289	0.618945	-0.882076	-0.149544	-1.716698	-0.921982	-2.027606	-0.714054	0.344718	1.541233	1.095917	0.534104
-0.062491	0.464203	0.208684	0.393175	0.403086	0.650557	-0.651024	-0.070514	-0.63142	-0.232206	-0.360921	0.599113	-0.437816	0.736557	0.26783	-0.067322
0.203455	0.525994	0.458633	0.608029	0.544704	0.803481	-0.37856	0.106572	-0.509758	-0.140393	-0.039918	0.847497	-0.466784	0.600771	0.147376	-0.132325
0.595529	1.061383	0.826223	0.877833	0.197355	0.460899	-0.692679	-0.0263679999999999	-0.667851	-0.232206	-0.22582	0.595053	-0.118268	0.990342	0.450856	0.122701
0.065403	0.432914	0.358936	0.494387	0.627727	0.875226	-0.143239	0.151377	-0.740631	-0.300109	-0.355174	0.453816	-0.263763	0.768217	0.419763	-0.002231
0.276114	0.689668	0.528124	0.72006	0.128242	0.484222	-0.771743	-0.133072	-1.561705	-0.78733	-1.668956	-0.534638	-0.84889	0.166775	-0.421854	-0.336889
0.829163	1.131452	0.967242	1.025465	0.115956	0.507669	-0.693873	-0.035257	-0.717127	-0.300109	-0.263465	0.610544	0.070744	1.230572	0.633041	0.279751
0.284172	0.672337	0.538503	0.720167	1.029076	1.328836	0.291215	0.329147	-0.47264	-0.156144	0.039822	0.886221	-0.68808	0.393723	-0.148979	-0.206707
0.860963	0.981325	0.8807	0.970812	0.419855	0.724926	-0.457059	0.0984539999999999	-1.123704	-0.534873	-0.884226	0.05364	0.115901	1.224899	0.732853	0.449253
0.660626	1.014122	0.861131	0.94885	0.913422	1.392847	0.45017	0.383417	-1.101097	-0.49254	-0.664415	0.196098	-0.351964	0.791306	0.29453	0.185952
1.259527	1.577063	1.340927	1.380542	0.451241	0.807584	-0.299488	0.11631	-0.718689	-0.365771	-0.363279	0.596606	0.670791	1.825666	1.268468	0.848774
1.019398	1.482655	1.154363	1.235212	0.604032	0.894879	-0.180268	0.143645	-1.222563	-0.661024	-0.953672	0.05364	-0.204831	0.942779	0.375606	0.284617
1.537131	1.80663	1.565792	1.666495	0.25232	0.548827	-0.69615	0.02804	-0.350467	-0.222753	0.311876	1.08476	-0.454919	0.607768	0.02018	0.041047
0.795737	1.267208	1.107906	1.214007	0.206456	0.516211	-0.734988	0.0369069999999999	-0.793428	-0.304176	-0.31062	0.624257	-0.35177	0.649614	0.227645	0.14737
1.77635	2.037293	1.780123	1.874207	0.428623	0.724926	-0.338076	0.16292	-1.154834	-0.54968	-0.992777	-0.059364	-0.91704	0.0474	-0.498427	-0.239463
0.654879	1.267208	1.107906	1.35268	0.025504	0.362634	-0.856646	-0.052348	-0.495355	-0.199853	-0.086058	0.820136	-0.647768	0.259019	-0.213602	-0.071101
1.697474	2.0686	1.724867	1.959303	0.584166	0.856018	-0.338076	0.118974	-0.817547	-0.405213	-0.404497	0.425426	-1.173301	-0.32038	-0.963051	-0.545713
0.9764	1.305728	1.130735	1.456947	0.153586	0.509872	-0.896532	-0.00668899999999994	-0.187568	-0.00400799999999996	0.396773	1.198237	-0.529739	0.259019	-0.181245	-0.071101
0.997142	1.195185	1.150025	1.35268	0.412679	0.739228	-0.536012	0.157546	0.322053	0.346804	1.143282	1.738465	-0.720836	0.0916600000000001	-0.461839	-0.300075
1.858013	2.026254	1.780593	1.940166	-0.252992	0.0273919999999999	-1.383595	-0.19686	-0.195433	0.01687	0.024279	0.89871	-0.337358	0.502091	0.011827	-0.00548099999999999
1.016386	1.180419	0.949188	1.241124	1.16545	1.534348	0.42292	0.4651	0.56283	0.436006	1.074674	1.798251	0.521408	1.383779	0.935291	0.607653
1.317276	1.528768	1.25841	1.48582	0.767162	1.142748	0.139637	0.354756	-0.507053	-0.179887	-0.608708	0.303968	1.242724	2.184533	1.663937	1.199714
1.418404	1.559051	1.313364	1.626204	0.117476	0.488601	-0.940187	0.021114	-0.072351	0.06572	0.342347	1.138035	0.960343	1.848456	1.390339	0.922629
1.761302	1.805375	1.50722	1.751453	0.717346	1.07552	-0.055738	0.308913	-0.932361	-0.394459	-0.940774	0.020592	0.811215	1.709815	1.419682	0.935077
0.873743	0.884523	0.757847	1.080285	-0.303177	-0.018632	-1.301851	-0.196879	0.082725	0.210047	0.502767	1.235092	-0.842391	-0.075043	-0.553437	-0.436727
1.397826	1.451141	1.177127	1.541182	0.050605	0.416852	-0.817775	0.002224	-0.656455	-0.207774	-0.647803	0.213759	1.09295	1.848456	1.611373	1.067214
0.95408	1.000639	0.850821	1.21996	1.156327	1.508498	0.582039	0.562365	-0.21646	0.109832	0.208149	0.90539	0.621961	1.500992	1.157626	0.844049
1.418404	1.433255	1.243786	1.545841	0.196494	0.57286	-0.737698	0.084132	0.502142	0.439037	1.276579	1.72885	0.044825	0.800068	0.562133	0.291766
1.337463	1.355252	1.212575	1.545841	0.451052	0.783216	-0.334449	0.255981	0.615802	0.556907	1.526248	1.944904	-0.101264	0.516259	0.388585	0.26508
1.659469	1.805375	1.557217	1.751453	1.488161	1.809792	0.902963	0.696874	-0.543415	-0.199853	-0.284092	0.366711	0.300659	1.067926	0.681357	0.515621
1.035749	1.165692	0.932574	1.335418	0.451052	0.915259	-0.495626	0.146935	0.257967	0.335643	1.005567	1.462883	-0.173914	0.519677	0.14144	0.145433
0.995664	1.093279	1.064715	1.39116	1.039156	1.365544	0.420697	0.487387	-1.33589	-0.566272	-1.215168	-0.382713	-0.337128	0.292383	-0.30339	-0.06062
0.994297	1.039407	0.955437	1.289949	1.059047	1.561106	0.584666	0.550233	-0.718637	-0.233519	-0.44947	0.268252	0.518969	1.094101	0.712079	0.57463
0.892965	0.995498	0.811205	1.174352	0.9809	1.338151	0.226965	0.459718	-1.059979	-0.447163	-1.204922	-0.421745	0.581188	1.371249	0.803432	0.660953
1.397826	1.528768	1.270281	1.656185	0.892889	1.142748	0.024865	0.4046	-0.844721	-0.380841	-0.930202	-0.201287	0.980866	1.708515	1.201415	0.93913
1.077014	1.257614	1.022269	1.411843	1.234152	1.601082	0.619787	0.555298	-0.569248	-0.28955	-0.517257	0.145228	1.661484	2.296455	2.010218	1.403637
1.716957	1.867707	1.650708	2.003686	0.883185	1.09308	0.10251	0.420028	0.252323	0.204929	0.855477	1.30753	1.166426	1.906577	1.448948	1.070974
1.037062	1.267208	1.07264	1.467208	0.0298889999999999	0.307624	-0.897977	0.045098	-0.592975	-0.264117	-0.530638	0.174647	1.05177	1.687685	1.34968	1.058716
0.599751	0.845497	0.733902	1.155527	0.356729	0.576185	-0.416802	0.195722	-0.405597	-0.148265	-0.414312	0.351354	0.51433	1.120198	0.681357	0.633403
0.678969	0.796285	0.683315	1.179401	0.707959	0.913808	-0.09808	0.293482	-0.020956	0.00955000000000006	0.061486	0.653524	0.146338	0.740777	0.35732	0.324542
0.660626	0.845497	0.64193	1.110263	0.834788	1.005327	0.059634	0.337758	0.382694	0.217085	0.855616	1.24299	-1.000136	-0.485088	-1.130395	-0.585945
-0.040654	0.206473	0.08144	0.617533	1.029288	1.198698	0.33826	0.480578	-0.457966	-0.191008	-0.121013	0.359864	0.652404	1.276089	1.095917	0.730168
1.417962	1.529954	1.330347	1.621923	0.717346	1.001266	-0.056907	0.401312	-0.147389	-0.031246	0.238627	0.81962	0.478638	1.113593	0.834131	0.573549
1.098811	1.233584	1.038469	1.487692	0.324987	0.632513	-0.41612	0.143279	0.191204	0.128667	0.73273	1.120044	0.216722	0.872725	0.562133	0.475419
0.660626	0.834562	0.692478	1.110263	0.455219	0.584864	-0.377189	0.178276	0.365628	0.161632	0.781	1.2087	0.930225	1.641779	1.287065	0.972309
0.384607	0.529196	0.448224	0.892373	0.025504	0.284442	-0.815514	-0.0441550000000001	0.016724	0.00183199999999994	0.262998	0.825262	0.711096	1.387859	1.136269	0.750243
0.703045	0.801813	0.651249	1.030353	-0.527627	-0.328152	-1.703082	-0.302689	-0.431957	-0.249547	-0.276512	0.21083	1.125771	1.814982	1.536273	1.107642
0.082767	0.282514	0.285773	0.583124	0.249185	0.438831	-0.696481	0.053608	0.214614	0.184267	0.951771	1.24778	0.708579	1.504321	1.136269	0.730168
1.339276	1.496242	1.31452	1.64199	0.21154	0.430598	-0.576414	0.026827	0.351011	0.166523	1.047705	1.395772	1.089687	1.804726	1.663051	0.968777
0.706003	0.899925	0.811138	1.108108	0.0957030000000001	0.261386	-0.855237	-0.0794250000000001	0.078076	-0.05074	0.549191	0.84736	1.228156	1.840066	1.708839	1.115494
0.467132	0.655019	0.488546	0.869054	-0.072794	0.078587	-1.049499	-0.185098	-0.906008	-0.552127	-1.083486	-0.459213	0.535233	1.068032	0.713377	0.442752
0.5242	0.769217	0.610211	0.937848	0.34203	0.47601	-0.615451	0.00909199999999988	-0.558033	-0.301222	-0.253601	0.193658	0.918129	1.47519	1.204161	0.683265
0.80295	0.932603	0.802202	1.086537	-0.0855590000000001	0.0695490000000001	-1.171849	-0.221484	-0.055123	-0.101143	0.43218	0.748462	1.073508	1.692642	1.411809	0.851142
0.048832	0.307734	0.195427	0.583347	0.284387	0.422532	-0.496717	-0.0529270000000001	-0.669158	-0.41812	-0.260379	0.165286	0.875876	1.47519	1.273554	0.728493
0.736457	0.87386	0.767515	1.002379	0.557368	0.69753	-0.26039	0.044484	-0.656596	-0.501828	-0.244625	0.151405	-0.133045	0.314567	0.137426	-0.095386
-0.0443	0.215546	0.229037	0.573515	0.0588580000000001	0.170402	-0.731072	-0.211718	-1.036375	-0.67781	-0.8846	-0.367978	0.384746	0.921897	0.617342	0.327064
-0.121066	0.178387	0.19923	0.42689	-0.127418	-0.117246	-1.237831	-0.413595	-1.749671	-1.064046	-1.858701	-1.236362	0.896774	1.479824	1.16302	0.6373
0.164781	0.432914	0.257727	0.584307	-0.176478	-0.079448	-1.121529	-0.395306	-1.131635	-0.694261	-0.757066	-0.37998	0.583722	1.159537	0.915461	0.437056
1.401485	1.588513	1.41228	1.473536	0.734758	0.709586	-0.145184	-0.0343009999999999	-1.437119	-0.98631	-1.307668	-0.962695	0.368388	0.81872	0.806117	0.294811
0.115192	0.544212	0.43862	0.663944	0.408316	0.384097	-0.534838	-0.192003	-0.704255	-0.643746	-0.172661	0.036406	-0.00382600000000011	0.50806	0.366614	0.061016
-0.28254	0.0204949999999999	-0.026896	0.136454	0.234026	0.239479	-0.849065	-0.208957	-0.546351	-0.510936	0.0975	0.365847	0.876119	1.300705	1.419422	0.695091
-0.123657	0.224477	0.073275	0.215472	0.027066	0.0278750000000001	-0.963354	-0.250947	-0.715969	-0.717705	-0.054704	0.162037	0.933454	1.492243	1.578116	0.836616
0.317379	0.562432	0.419195	0.574408	0.209469	0.119098	-0.885788	-0.232968	-1.431974	-1.047196	-0.933573	-0.730125	0.138268	0.550537	0.586791	0.056047
0.252276	0.550285	0.379061	0.404947	0.490956	0.324785	-0.493912	-0.127488	-1.759595	-1.257573	-1.896739	-1.335435	-0.161115	0.150812	0.176987	-0.132048
1.020308	1.208941	1.059526	0.999655	0.773777	0.663379	-0.145563	-0.0241450000000001	-0.75364	-0.668179	-0.403732	-0.202806	-0.20444	0.121048	0.224926	-0.192014
0.012493	0.31743	0.351514	0.284813	-0.0373019999999999	-0.176624	-1.158544	-0.434129	-0.828158	-0.785035	-0.597316	-0.355788	-0.302635	-0.040667	0.183951	-0.186409
0.753849	0.842003	0.8133	0.799258	-0.395519	-0.522572	-1.670669	-0.584118	-1.131635	-0.983546	-0.746989	-0.608896	0.0952980000000001	0.38701	0.599367	0.128797
0.436816	0.654264	0.607466	0.552378	0.144811	0.0656430000000001	-0.806032	-0.321029	-1.200395	-1.064828	-0.748103	-0.668566	-0.98055	-0.819328	-0.687505	-0.777594
0.956194	1.183042	0.982784	0.866298	-0.826128	-0.933239	-2.140285	-0.766659	-1.75283	-1.297903	-1.662438	-1.471505	0.449424	0.725969	0.93572	0.270401
0.406174	0.587359	0.557958	0.472304	0.160847	0.087755	-0.769207	-0.259951	-0.814962	-0.817577	-0.304075	-0.291877	-0.160769	0.121264	0.310095	-0.07232
0.372371	0.445478	0.459177	0.337684	-0.664527	-0.834143	-1.759966	-0.681416	-1.208	-1.008303	-0.845282	-0.763121	-0.433697	-0.237111	-0.00488799999999995	-0.270377
0.175511	0.315613	0.300587	0.24658	-0.261448	-0.354892	-1.239767	-0.548298	-2.15746	-1.673979	-2.724915	-2.264339	-1.024515	-0.897194	-0.793208	-0.839277
0.427679	0.69875	0.607481	0.460626	0.0192300000000001	-0.079448	-1.042334	-0.425933	-0.935796	-0.966079	-0.747633	-0.708959	-1.42186	-1.340075	-1.338274	-1.238474
0.242161	0.551267	0.368616	0.300141	-0.199059	-0.284419	-1.235861	-0.582942	-1.598026	-1.266603	-1.695212	-1.425499	-0.203114	0.047666	0.223189	-0.27828
0.280897	0.637987	0.448412	0.312044	0.266199	0.277485	-0.691328	-0.330843	-1.095259	-0.967499	-0.687794	-0.749548	-0.803419	-0.560336	-0.36703	-0.591082
0.193345	0.332952	0.177365	0.12829	0.561962	0.688743	-0.026773	-0.0953390000000001	-0.876426	-0.860549	-0.441814	-0.50823	-0.780766	-0.596972	-0.345904	-0.538284
0.591909	0.937909	0.737522	0.595247	-0.233142	-0.18159	-1.045307	-0.552639	-0.814962	-0.860549	-0.541145	-0.533034	-0.592548	-0.326258	-0.131117	-0.445283
0.059802	0.308112	0.12855	0.140435	-0.0784469999999999	-0.0133760000000001	-0.886954	-0.491044	-1.749671	-1.438852	-2.04405	-1.787194	-0.736995	-0.520135	-0.360059	-0.555966
-0.050436	0.097452	0.020771	0.0510680000000001	-0.621116	-0.631681	-1.709313	-0.780441	-1.145999	-1.04497	-0.973583	-0.852758	-0.864393	-0.681212	-0.74557	-0.748134
-0.333863	-0.146051	-0.210849	-0.121359	-0.332615	-0.225102	-1.394775	-0.638612	-1.416145	-1.061077	-1.102308	-1.03246	-0.97564	-0.901742	-0.790645	-0.875824
1.065758	1.232074	1.025172	0.980494	0.451273	0.566106	-0.456316	-0.278643	-1.902441	-1.354989	-2.312316	-1.924157	-0.417966	-0.115403	-0.224378	-0.40249
0.215308	0.283533	0.298327	0.288222	0.524903	0.536181	-0.261318	-0.200492	-0.988338	-0.894105	-0.775885	-0.61092	0.5667	0.980086	0.836244	0.404782
1.065758	1.152052	0.975906	0.935435	0.322997	0.353586	-0.613831	-0.332291	-0.916579	-0.811401	-0.853682	-0.639486	0.482077	0.77392	0.766491	0.203581
-0.140181	0.121314	0.0483020000000001	0.174362	0.063337	0.170402	-0.731823	-0.438638	-1.214715	-1.012591	-1.213267	-1.026167	0.852245	1.275147	1.133521	0.624469
0.259084	0.408015	0.368616	0.413752	-0.34627	-0.317065	-1.280563	-0.631704	-0.460102	-0.635783	-0.170515	-0.138809	0.054091	0.434654	0.185236	-0.012272
0.210412	0.176337	0.18692	0.332494	0.371465	0.498115	-0.456772	-0.332984	-1.583051	-1.280222	-1.773315	-1.475607	0.494233	0.859505	0.856826	0.321347
0.549237	0.501707	0.488122	0.538128	-0.0345279999999999	0.078587	-0.929404	-0.49198	-1.038885	-0.902762	-1.013415	-0.817638	0.752624	1.230305	1.311121	0.592174
-0.409803	-0.532244	-0.226163	-0.226882	0.0955090000000001	0.253925	-0.893164	-0.422753	-0.508952	-0.577363	-0.050435	-0.023431	-0.593869	-0.281705	-0.281357	-0.427428
0.687934	0.712793	0.777918	0.663315	0.539745	0.659194	-0.141999	-0.210886	-0.594733	-0.635857	-0.291577	-0.214745	-0.089807	0.136021	0.066361	-0.123082
0.026539	-0.024555	0.19653	0.194175	0.291058	0.23115	-0.535786	-0.290132	-0.993999	-0.895981	-1.274979	-1.005133	1.02538	1.307307	1.242238	0.643979
0.602965	0.683889	0.679319	0.743507	0.0955090000000001	0.092147	-0.852824	-0.388348	-0.208917	-0.426282	0.080038	0.120908	0.514136	0.939983	0.925187	0.475609
-0.035046	-0.188414	0.0142960000000001	0.055047	-0.664986	-0.674009	-1.892553	-0.744086	-0.48363	-0.602374	-0.314016	-0.215273	-0.104048	0.30125	0.233351	-0.085995
0.599751	0.640345	0.700293	0.686426	-0.0153909999999999	0.0221529999999999	-0.97421	-0.398183	-0.756626	-0.711424	-0.71073	-0.563736	-0.365082	-0.059111	-0.172375	-0.290251
0.9764	0.687346	0.712351	0.640845	-0.130129	0.0154429999999999	-1.21288	-0.513131	-1.17133	-0.896787	-1.489175	-1.071905	0.068781	0.493852	0.335551	0.130833
0.633533	0.725471	0.661879	0.710232	0.214906	0.23043	-0.936387	-0.363495	-0.392283	-0.459011	-0.142586	-0.00619899999999998	-0.132711	0.226798	-0.012764	-0.127579
0.231419	0.200048	0.356887	0.351551	0.681538	0.691746	-0.218712	-0.097272	-0.454683	-0.551444	-0.425634	-0.213987	0.780482	1.276089	1.005069	0.573549
1.297504	1.358338	1.311321	1.230548	-0.284446	-0.179897	-1.459753	-0.561228	-0.895353	-0.796221	-1.235582	-0.799879	0.028049	0.4081	0.187494	0.035641
0.652156	0.626187	0.694121	0.792115	0.260918	0.384942	-0.897275	-0.302689	-0.517232	-0.568049	-0.614694	-0.278557	0.90078	1.458588	1.176656	0.704702
0.854641	0.916551	0.968748	0.96484	-0.032415	0.0448470000000001	-1.340193	-0.47244	-0.130398	-0.374915	0.066841	0.288708	-0.10286	0.348248	-0.036599	-0.043487
1.156202	1.0264	1.173094	1.150073	0.004803	-0.00959099999999991	-1.34187	-0.454663	-0.278623	-0.40837	-0.203844	0.030843	-0.278404	0.181579	-0.236857	-0.206707
0.492281	0.561374	0.714031	0.733678	0.327656	0.384942	-0.817775	-0.267103	-0.490693	-0.585083	-0.553243	-0.226706	0.740469	1.185097	0.964918	0.508107
0.590695	0.511358	0.704986	0.792115	0.38582	0.50115	-0.616681	-0.18683	-0.251192	-0.416518	-0.199436	0.135567	0.64382	1.146216	0.87445	0.54765
1.357607	1.281634	1.346707	1.335418	0.383431	0.548827	-0.657042	-0.142456	-0.199122	-0.28955	-0.17579	0.15044	-0.087414	0.319247	-0.028425	-0.038302
1.236311	0.977534	1.219971	1.177473	0.60854	0.797827	-0.414204	-0.017142	-0.223391	-0.356539	-0.356793	0.047524	0.903917	1.400387	1.176656	0.8033
1.256441	1.252824	1.375727	1.318368	0.539117	0.66588	-0.332991	-0.026043	-0.946837	-0.694604	-1.410996	-0.750412	0.4732	0.929418	0.681357	0.515621
2.080969	1.95267	2.059876	1.892144	0.381191	0.440637	-0.535141	-0.034954	-0.041075	-0.262602	-0.096615	0.232386	0.0172	0.519677	0.263004	0.211457
1.357629	1.382861	1.575985	1.570922	0.990818	1.128702	0.350866	0.269238	-0.0892860000000001	-0.245027	0.021787	0.378962	0.662544	1.048064	0.894735	0.607653
1.662043	1.606522	1.757316	1.69224	0.951797	1.153776	0.353158	0.269863	0.050964	-0.270594	-0.021942	0.351066	0.686832	1.087441	0.914803	0.60047
1.317252	1.214149	1.406939	1.434592	0.329173	0.371074	-0.57519	-0.052675	0.284036	-0.083529	0.309925	0.640448	0.557568	1.061209	0.854214	0.653539
1.763014	1.485522	1.676033	1.576002	1.148369	1.128702	0.353158	0.305874	0.424323	-0.024503	0.620484	0.793202	1.589763	2.125169	1.982011	1.290037
0.808768	0.796369	1.080163	1.110154	0.430836	0.2768	-0.535768	-0.052903	-0.132704	-0.353955	-0.508206	-0.026507	1.446048	1.975491	1.831551	1.301978
2.12442	1.976395	2.211255	2.094622	0.331453	0.300176	-0.657012	-0.0797899999999999	0.182522	-0.160356	-0.0597309999999999	0.323318	1.234011	1.605499	1.360914	0.976368
1.256441	1.248039	1.450469	1.505245	1.020888	0.983107	0.232913	0.233879	0.424323	-0.042363	0.503557	0.804271	1.917845	2.310111	1.966235	1.422717
1.337585	1.248039	1.575841	1.505245	0.942199	0.904977	0.312362	0.269238	-0.117888	-0.328305	-0.460469	0.028345	2.000823	2.318162	2.215855	1.558968
0.891348	0.653125	1.080163	1.096421	0.477116	0.425441	-0.452496	0.02804	0.284036	-0.060164	0.328325	0.725118	1.762848	2.147473	1.900661	1.424882
1.418404	1.219001	1.450469	1.444862	0.932616	1.061363	0.116134	0.216449	-0.444468	-0.491094	-0.986284	-0.329959	1.450821	1.871747	1.582382	1.244918
0.930435	0.835105	1.135112	1.180807	1.847004	1.888494	1.323844	0.691203	-0.118208	-0.399282	-0.306654	0.057501	1.642319	2.113998	1.896938	1.422717
1.945293	1.766389	1.927429	1.959943	1.100616	1.257558	0.401507	0.369372	0.711081	0.083017	1.05365	1.264223	1.111037	1.641779	1.309057	1.124695
0.991907	0.752156	1.084259	1.226751	1.523252	1.587008	0.965389	0.574446	-0.638305	-0.626831	-1.059455	-0.395589	2.204188	2.768789	2.609725	1.923218
1.377916	1.252824	1.481782	1.525567	0.912974	0.968798	0.321668	0.359148	0.050964	-0.205273	-0.015447	0.370526	1.708809	2.377879	2.076216	1.635115
0.485814	0.398581	0.72028	0.863676	1.179415	1.324422	0.525142	0.42087	0.548569	-0.029109	0.544613	0.887774	0.966406	1.583752	1.34968	1.01344
2.021553	1.937534	2.063198	1.99793	0.576695	0.758746	0.07697	0.161567	0.733826	0.070248	0.821051	1.127471	0.805077	1.342039	1.11707	0.947506
0.730007	0.520203	0.833838	0.991018	1.258103	1.324422	0.604653	0.43797	1.00629	0.248378	1.162062	1.383001	1.09434	1.699659	1.419682	1.136863
2.365096	2.255849	2.413393	2.26388	0.853542	0.894879	0.073347	0.240975	0.749974	0.062597	0.959652	1.106306	0.684248	1.217716	0.995608	0.783064
1.296996	1.155896	1.443847	1.480124	2.116551	2.290318	1.798286	0.834987	0.393187	-0.097544	0.536409	0.741689	0.408049	0.963716	0.692467	0.639082
1.859806	1.705022	1.924829	1.901769	0.942199	0.958372	0.196147	0.267521	0.182522	-0.171924	0.078066	0.4491	0.160459	0.604096	0.388585	0.370564
1.075867	0.900523	1.169565	1.233826	0.775185	0.778391	0.029282	0.160446	0.733826	0.08803	1.04312	1.206108	1.545461	2.043895	1.795527	1.406098
2.239797	2.142556	2.211255	2.113265	1.480018	1.587778	0.872433	0.525779	-0.665212	-0.601757	-1.071215	-0.538987	1.727708	2.250461	1.982011	1.54738
0.934777	0.735711	1.08793	1.153006	0.902715	0.983107	0.194105	0.277911	0.439709	0.0141	0.665496	0.89871	-0.20527	0.197336	-0.141027	0.054711
2.118639	2.064991	2.166602	2.052074	0.628498	0.593714	-0.333744	0.0987250000000001	-0.474951	-0.466448	-0.898134	-0.343759	1.562577	2.078218	1.847929	1.382489
1.357709	1.305728	1.532596	1.520878	1.845736	1.874313	1.383243	0.676418	-0.25806	-0.407421	-0.561491	-0.04528	0.332307	0.85443	0.481864	0.475419
1.218175	1.353647	1.539164	1.576163	0.922268	0.938072	0.265508	0.240492	0.486013	0.029491	0.572402	0.959747	1.741424	2.259557	2.08195	1.527971
1.837112	1.987548	2.028765	2.070864	0.931975	1.015514	0.226965	0.196111	0.263952	-0.107228	0.287618	0.630802	0.2575	0.597785	0.273171	0.260578
1.537926	1.666379	1.805764	1.841192	1.709746	1.75745	1.183764	0.595323	0.50145	0.00955000000000006	0.807194	1.013769	1.37352	1.806723	1.640284	1.213032
1.835603	1.841004	1.940977	1.94974	1.009907	0.952421	0.186477	0.230919	0.555063	0.0678479999999999	1.022891	1.2087	1.33182	1.953695	1.720287	1.245588
1.338198	1.525486	1.675546	1.686064	0.795493	0.730328	0.026286	0.106572	0.830759	0.141262	1.386011	1.571846	1.164307	1.771175	1.513765	1.078883
1.041662	1.186822	1.337669	1.408119	0.21154	0.123535	-0.696771	-0.158816	0.708715	0.03266	1.098423	1.37541	1.360963	1.987347	1.651622	1.355251
0.821435	0.981325	1.188497	1.238066	0.805662	0.721207	-0.056907	0.132676	1.226542	0.297442	1.72838	1.903633	0.514136	0.966739	0.825225	0.631152
1.298443	1.453492	1.484121	1.491753	0.698622	0.668	-0.056907	0.0885720000000001	-0.050499	-0.310279	-0.062451	0.246857	-0.393444	0.091179	-0.212196	-0.026002
1.218175	1.123533	1.303997	1.401507	0.36558	0.415407	-0.536212	-0.0174559999999999	0.063967	-0.209733	0.158814	0.452514	0.284217	0.850007	0.684788	0.57295
1.021067	0.986628	1.177059	1.203385	0.844336	0.807584	-0.054519	0.132864	-0.251192	-0.45204	-0.628236	-0.17669	-0.641481	-0.209642	-0.494663	-0.225248
0.502708	0.584928	0.813005	0.973941	1.579147	1.512773	0.930196	0.50195	0.287339	-0.135741	0.336533	0.719736	-0.419876	0.0175210000000001	-0.345904	-0.127617
1.101609	1.267759	1.326064	1.442775	0.535347	0.529369	-0.417075	-0.034829	-0.330031	-0.510744	-0.589218	-0.0619210000000001	-0.376565	-0.0268280000000001	-0.345904	-0.159826
0.76355	0.861919	0.974301	1.168729	1.221132	1.104486	0.292878	0.211059	0.388749	-0.096487	0.820666	1.03964	0.424605	1.051351	0.635635	0.57928
1.062211	1.310603	1.375544	1.383873	0.96166	0.885195	0.096926	0.132165	0.290063	-0.121461	0.790221	0.990329	-0.147359	0.432849	0.011015	0.112007
1.378741	1.267759	1.345022	1.383873	0.739285	0.726958	-0.257956	-0.00826700000000002	0.068533	-0.237166	0.378665	0.714766	0.805646	1.268861	1.034531	0.746868
1.181745	1.438626	1.481256	1.439088	1.423546	1.372422	0.689588	0.307514	-0.106411	-0.486013	-0.200586	0.244211	0.323691	0.828585	0.437184	0.417911
0.787313	0.883848	0.980252	1.06292	1.336693	1.320324	0.649603	0.289943	0.223709	-0.238155	0.547346	0.798032	0.024375	0.431358	-0.052222	0.088193
1.41913	1.603688	1.59787	1.562972	0.091375	0.101	-1.054575	-0.298002	0.261272	-0.188375	0.716644	0.962691	0.450658	0.886586	0.577782	0.476254
0.886517	0.889335	0.999633	0.983235	0.614875	0.544364	-0.377798	-0.0956600000000001	-0.39615	-0.560661	-0.325147	0.127071	-0.289528	0.136161	-0.313586	-0.16415
1.22227	1.25461	1.337044	1.301304	0.672448	0.582611	-0.338076	-0.086765	-0.907023	-0.809894	-1.265149	-0.70281	0.237917	0.756703	0.295862	0.340299
0.829163	0.868306	0.997328	1.039411	0.451241	0.246622	-0.734988	-0.174077	0.186175	-0.247032	0.600751	0.770853	0.0529490000000001	0.550537	0.042748	0.139055
0.577992	0.767423	0.915977	0.90231	0.654415	0.506149	-0.299143	-0.112796	-0.308122	-0.477971	-0.144015	0.141002	-0.303398	0.136161	-0.3854	-0.16415
0.346038	0.383374	0.657287	0.651906	1.144066	1.205222	0.525493	0.184401	-0.644621	-0.709239	-0.694425	-0.38095	0.365036	0.77044	0.516466	0.340299
1.246601	1.411084	1.505539	1.387809	0.405322	0.338289	-0.575676	-0.182558	-0.224785	-0.453333	-0.140522	0.151405	-0.0469029999999999	0.38701	0.176987	0.133872
0.989934	1.034471	1.164266	1.050273	0.45392	0.353586	-0.575676	-0.2174	-0.471878	-0.601532	-0.290297	-0.051081	0.137134	0.562614	0.428486	0.270401
0.811064	0.991669	0.975906	0.925527	0.482511	0.353586	-0.496717	-0.234813	-0.446385	-0.585195	-0.494809	-0.139314	0.869266	1.395984	1.311121	0.720532
1.363841	1.33668	1.542601	1.285382	0.505066	0.285741	-0.535511	-0.2773	-0.794014	-0.783358	-1.103553	-0.689328	0.279565	0.814953	0.626448	0.321347
0.504689	0.858907	1.012536	0.89029	1.077383	0.928379	0.168514	-0.0506500000000001	-0.520846	-0.733167	-0.67493	-0.304729	0.970005	1.51703	1.430093	0.816967
1.130764	1.331734	1.464453	1.30901	0.840959	0.550251	-0.145184	-0.189373	-0.421987	-0.63457	-0.396335	-0.101098	0.97812	1.364269	1.437766	0.790547
1.069717	1.434017	1.486956	1.277461	1.058691	0.776772	0.089015	-0.146313	-0.263924	-0.609451	-0.017426	0.201582	-0.596661	-0.289029	-0.373932	-0.487175
0.894271	1.16237	1.270124	0.936549	0.629874	0.361426	-0.613831	-0.382136	-0.570814	-0.831564	-0.509774	-0.177575	0.178775	0.560892	0.402852	0.118962
0.367654	0.858907	0.95305	0.686025	0.144811	-0.214274	-1.004947	-0.608289	-0.963154	-1.061044	-1.219443	-0.897359	0.136881	0.474282	0.450655	0.169209
0.725714	0.997817	1.108192	0.878428	0.346555	-0.0475729999999999	-0.925846	-0.547164	-0.730797	-0.955861	-1.01327	-0.622247	0.737357	1.024559	1.084038	0.471533
0.491905	0.881395	0.892453	0.674709	0.426315	0.0751139999999999	-0.766331	-0.511467	-1.619731	-1.378141	-2.209949	-1.620987	-0.286412	-0.142027	-0.153326	-0.299846
0.415382	0.611427	0.803904	0.572786	0.623541	0.452357	-0.417423	-0.312725	-1.786075	-1.402696	-2.38822	-1.816796	-0.837964	-0.627189	-0.712641	-0.784803
1.323981	1.639474	1.62064	1.332746	1.172468	1.028206	0.399694	-0.0775659999999998	-1.149175	-1.033047	-1.390714	-0.994453	-0.710711	-0.436181	-0.523669	-0.643146
0.401692	0.525994	0.716325	0.480776	0.306452	0.0942999999999998	-0.810918	-0.490089	-0.192092	-0.544059	0.152416	0.213646	-0.329096	-0.0542549999999999	-0.145995	-0.359906
1.634744	1.818167	1.739979	1.356589	1.049418	0.861549	0.245781	-0.182558	-1.174708	-1.033047	-1.349993	-1.01846	1.47025	1.989746	1.890193	1.135994
0.148148	0.327195	0.439204	0.264331	0.578314	0.369404	-0.223	-0.40859	-0.545997	-0.759457	-0.537646	-0.317602	-0.216363	0.180692	0.074182	-0.172493
1.069717	1.354334	1.404894	1.026906	-0.304439	-0.522572	-1.40151	-0.831084	-0.324968	-0.742449	-0.263465	-0.037926	-0.273557	0.0626980000000001	0.00343899999999997	-0.218321
0.535358	0.663694	0.716993	0.45743	0.945231	0.709586	0.167335	-0.234219	-1.185883	-1.270754	-1.71599	-1.245513	-0.089588	0.165653	0.208309	-0.18229
0.652128	0.868306	0.965281	0.65185	0.249855	-0.025728	-0.731823	-0.53205	0.311491	-0.346186	0.754158	0.80916	-1.298442	-1.03358	-1.191994	-1.066727
0.288668	0.289027	0.478113	0.192245	0.80215	0.528159	-0.143239	-0.322509	0.167574	-0.395328	0.611505	0.660358	-0.857803	-0.560336	-0.582394	-0.718772
1.536822	1.637123	1.592961	1.190059	1.617734	1.413295	0.95151	0.0708820000000001	-0.756269	-0.917871	-0.983554	-0.612745	-0.616578	-0.279193	-0.313586	-0.51272
0.232363	0.339255	0.518113	0.284893	1.295553	1.080461	0.598186	-0.086765	-0.657065	-0.868192	-0.884226	-0.509628	-0.132345	0.313637	0.176987	-0.150251
1.183094	1.452673	1.46103	1.097329	-0.0937669999999999	-0.354892	-1.284458	-0.800736	-1.39233	-1.212332	-2.117823	-1.466828	0.58021	1.172531	1.084404	0.514668
0.427925	0.646181	0.668074	0.456695	0.945231	0.680123	0.129244	-0.299196	-1.462115	-1.262138	-2.137485	-1.484219	-0.032537	0.493852	0.313024	0.07969
0.760883	0.861919	0.999633	0.652263	0.249855	0.018319	-0.810918	-0.619744	0.046195	-0.426936	0.329982	0.537593	0.366085	0.935327	0.775907	0.294811
0.437938	0.409051	0.659485	0.409802	0.658297	0.467963	-0.378382	-0.434884	-0.929937	-0.937475	-1.242136	-0.793017	-0.767344	-0.178663	-0.588457	-0.470374
1.5971	1.644874	1.731345	1.366652	1.239005	1.023797	0.485836	-0.14186	-0.943281	-0.854341	-1.233511	-0.756953	0.521395	1.096028	1.064254	0.450142
0.17879	0.282514	0.538503	0.375196	0.669165	0.391682	-0.37849	-0.47244	-0.80628	-0.863578	-1.103309	-0.589119	0.453332	1.101515	1.014734	0.475609
0.944206	1.078177	1.235377	0.892373	0.209469	-0.121531	-1.090159	-0.751231	0.34519	-0.28955	0.70897	0.925113	-0.176069	0.344844	0.193563	-0.123082
0.463309	0.66079	0.889488	0.675054	1.200891	1.009569	0.289601	-0.240545	-0.446385	-0.728526	-0.486368	-0.099435	-0.535348	0.016733	-0.187599	-0.3308
0.998731	1.205051	1.363945	1.032366	1.10589	0.865667	0.251557	-0.231768	-1.092088	-1.0414	-1.442807	-0.834024	-1.327855	-0.863677	-1.029699	-0.93552
0.997142	1.156818	1.356625	1.05627	0.493787	0.18456	-0.536471	-0.501574	-0.261972	-0.576758	-0.077059	0.294655	-1.334401	-0.763535	-0.939102	-0.789783
1.077014	1.435164	1.497826	1.206269	0.856661	0.638364	0.019682	-0.304505	-1.229123	-1.134971	-1.550421	-0.935527	-0.974275	-0.344543	-0.701059	-0.643104
0.835657	1.06996	1.11588	0.884134	1.630018	1.47237	0.886918	0.0640379999999999	-0.25973	-0.610107	-0.151754	0.258832	0.859966	1.520451	1.364302	0.780869
1.5583	1.906382	1.82323	1.520878	0.425346	0.207432	-0.695778	-0.512159	-0.219539	-0.524854	-0.015884	0.50711	0.28783	0.886218	0.562133	0.331637
1.075867	1.219001	1.261485	1.082865	1.057872	0.948131	0.022174	-0.196835	-0.86949	-0.788086	-0.913066	-0.266298	-0.336777	0.302816	-0.028425	0.002954
1.741833	1.926263	1.836835	1.550726	1.37314	1.265177	0.532099	0.00164200000000003	-1.260676	-0.984503	-1.517787	-0.694868	0.014525	0.713248	0.487986	0.251706
1.57968	1.692629	1.681678	1.45512	1.269899	1.234712	0.503725	0.038903	-1.161494	-0.899442	-1.438124	-0.630358	0.553051	1.446163	1.227912	0.8033
1.094559	1.446661	1.489411	1.374414	1.125232	1.001266	0.301963	-0.079033	-1.061141	-0.830948	-1.317218	-0.539534	0.582459	1.400387	1.18739	0.8033
1.256657	1.325604	1.408591	1.374414	1.231006	1.184746	0.498932	0.038504	-0.045956	-0.386343	-0.100088	0.527801	-0.586447	0.0916600000000001	-0.068642	-0.043487
1.861736	2.08965	2.028765	1.9082	0.362212	0.23043	-0.736789	-0.487107	-0.551717	-0.64267	-0.724175	-0.028873	0.844903	1.550097	1.408426	0.881662
1.560891	1.711283	1.744546	1.636891	1.222848	1.234712	0.427526	0.020725	-0.261668	-0.405213	-0.291642	0.4491	0.903917	1.733635	1.530093	1.025761
1.602918	1.989985	1.995453	1.81476	1.11698	0.983107	0.271602	0.021114	-0.436523	-0.566272	-0.928909	-0.107703	0.420052	1.126638	0.934844	0.58647
2.083762	2.086145	2.260419	2.120782	1.16646	1.178985	0.516682	0.067422	-1.02403	-0.736689	-1.83589	-0.791228	0.907138	1.709815	1.390339	0.968078
1.541045	1.875856	1.950888	1.90529	0.785333	0.744072	-0.04914	-0.151128	0.191064	-0.122618	-0.039948	0.742396	0.494287	1.05488	0.904688	0.606304
1.620168	1.766389	1.974304	1.888979	1.292844	1.324422	0.674579	0.176487	0.408705	0.014078	0.271266	1.111637	0.600731	1.212053	0.894735	0.633403
2.165111	2.445176	2.497546	2.41455	1.030268	1.058114	0.237148	0.059082	0.517089	0.165914	0.647636	1.322938	-0.044203	0.4848	0.236364	0.166616
1.8445	1.911347	1.977217	2.038461	0.961766	0.950751	-0.00345699999999993	0.041291	0.779157	0.250802	1.001836	1.512013	-0.116338	0.335964	-0.00343	0.032883
1.764865	2.025835	2.103324	2.100716	1.266759	1.348298	0.525142	0.215532	0.074856	-0.053014	0.016398	0.815326	0.132194	0.57605	0.285548	0.205377
2.146341	2.196974	2.269716	2.35212	1.080083	1.02971	0.078862	0.069758	0.221477	0.00148799999999999	0.00336200000000003	0.731234	0.689497	1.107159	0.864384	0.673767
1.378209	1.79363	1.950888	1.967026	1.450501	1.389307	0.636672	0.261089	0.197784	0.012101	0.059342	0.890582	1.374054	2.021616	1.582382	1.199714
1.885296	1.989985	2.10796	2.190824	0.971326	0.886392	-0.00676900000000002	0.032937	0.401066	0.109832	0.657033	1.145737	0.673371	1.133217	0.813726	0.57463
2.328222	2.520934	2.57446	2.629017	1.383133	1.454554	0.481122	0.289199	-0.229686	-0.221596	-0.519244	0.374607	1.009124	1.629702	1.34968	0.910162
2.13079	2.147645	2.21607	2.253406	1.831418	1.836227	1.08108	0.469926	0.431986	0.109832	0.412245	1.174728	0.309238	1.015303	0.559588	0.528636
2.35066	2.433465	2.458878	2.450848	1.609205	1.599767	0.965389	0.433149	0.889332	0.295053	1.108863	1.779236	1.111037	1.721733	1.390339	1.021834
2.268829	2.272517	2.346479	2.495522	1.531166	1.546967	0.766401	0.378036	0.541376	0.17669	0.508446	1.392376	1.858372	2.640118	2.241639	1.679697
1.8445	2.114984	2.170932	2.262472	1.62787	1.587008	0.920488	0.494326	0.479124	0.150835	0.490312	1.212391	1.816691	2.480868	2.104292	1.55729
1.928666	1.982832	2.067077	2.244331	1.62787	1.678823	0.841858	0.511384	0.495042	0.184205	0.503557	1.382261	2.059598	2.72678	2.405715	1.713873
1.964419	2.161031	2.220371	2.396812	1.601506	1.520937	0.7285	0.466263	0.911774	0.346663	1.081187	1.679764	1.201006	1.826737	1.559143	1.149014
1.800112	1.926263	1.937826	2.147062	1.207528	1.100539	0.118076	0.193343	0.385368	0.111412	0.308065	1.174728	1.751949	2.364024	1.982011	1.502707
1.518116	1.778388	1.849578	1.934012	1.001393	0.900838	-0.206168	0.138707	1.023097	0.500929	1.356145	1.978012	2.511674	3.233445	3.027472	2.209068
1.317252	1.550498	1.625985	1.895695	1.991167	2.046283	1.411199	0.645086	0.104707	-0.065669	-0.046579	0.90539	0.989167	1.65384	1.168438	0.968078
2.043139	2.203577	2.238261	2.369981	1.794623	1.796828	1.126373	0.635254	-0.458432	-0.320254	-0.978478	-0.004104	2.296089	3.002611	2.772561	2.022646
1.499481	1.507055	1.688753	1.850412	0.83383	0.940109	-0.042934	0.165703	0.983985	0.526687	1.389948	1.938191	1.545461	2.272343	1.900661	1.448378
2.180697	2.369811	2.372093	2.41455	1.968155	2.019411	1.406373	0.678668	-0.152245	-0.219445	-0.693323	0.228949	1.474191	2.112743	1.790892	1.370659
0.955612	1.126956	1.289442	1.530483	1.332617	1.246039	0.437404	0.335712	0.191064	-0.067945	-0.194805	0.668706	1.385965	1.918159	1.599698	1.226945
2.298757	2.616057	2.518621	2.574707	1.661843	1.705114	1.114111	0.559894	0.393187	0.042136	0.202169	1.006067	2.441463	3.15974	2.866779	2.011465
0.974896	1.165692	1.301372	1.55584	1.555052	1.52193	0.995127	0.551423	0.555825	0.159762	0.54141	1.1852	0.418346	0.963716	0.509642	0.449253
2.276904	2.499004	2.584632	2.539055	0.324987	0.339037	-0.656936	-0.025098	0.571608	0.203496	0.505339	1.214288	0.907901	1.665884	1.338538	0.972309
1.758284	2.050633	2.091008	2.137812	1.688051	1.601082	1.069321	0.541757	0.817862	0.277143	1.053783	1.591108	-0.263457	0.27206	-0.028425	0.049305
1.93649	2.255849	2.286917	2.263024	1.435635	1.52314	0.984176	0.451174	0.501501	0.075385	0.613153	1.206108	0.2575	0.736557	0.5003	0.351056
0.758316	0.97232	1.161529	1.343258	0.864435	0.870503	0.146024	0.19024	0.308746	0.049803	0.300023	0.959747	0.688101	1.210921	0.985292	0.58647
2.153449	2.54087	2.432877	2.396709	1.300143	1.340252	0.627973	0.387428	-0.768334	-0.524854	-1.347778	-0.356686	2.60763	3.242642	3.068165	2.0772
0.718626	0.977534	1.18078	1.202054	1.743345	1.744396	1.261065	0.610551	0.169852	0.016541	0.232582	0.938044	1.099309	1.828301	1.565226	1.131997
1.9727	2.388503	2.34431	2.228514	0.631279	0.50115	-0.173495	0.046334	-0.908459	-0.609704	-1.612491	-0.61699	0.18448	0.705087	0.379546	0.318367
0.921339	1.146848	1.28804	1.30407	1.317806	1.251333	0.738026	0.377976	-0.540254	-0.431883	-1.103515	-0.162333	1.560863	2.237575	2.025921	1.361436
1.259527	1.512114	1.528444	1.535711	0.634663	0.484222	-0.178083	0.0100520000000001	0.654615	0.218483	0.855477	1.472911	1.687772	2.303372	2.193131	1.43223
0.879661	1.098312	1.188497	1.364041	1.192285	1.082582	0.418529	0.24317	-0.116555	-0.222753	-0.083487	0.669631	1.596742	2.224236	2.100888	1.423205
2.033493	2.265745	2.234126	2.26388	1.671676	1.692854	1.168212	0.474816	-0.178543	-0.240172	-0.181693	0.491343	1.074138	1.638923	1.549359	1.030452
1.100156	1.118481	1.165681	1.198743	1.481534	1.458859	0.899638	0.402902	0.025782	-0.181511	0.012397	0.724978	0.509296	1.069729	0.974847	0.566367
2.087907	2.327516	2.261295	2.150438	0.555285	0.453989	-0.455962	-0.08879	0.18761	-0.074109	0.396773	0.964036	-0.046934	0.463259	0.304404	0.157837
0.983508	1.090403	1.223127	1.300436	1.547809	1.511138	0.89637	0.339715	-0.984176	-0.753586	-1.508304	-0.563736	-0.175832	0.314567	0.153807	0.047395
1.477599	1.844998	1.773969	1.761282	1.632301	1.537971	0.930196	0.366243	-0.86949	-0.694518	-1.32332	-0.522823	-0.633129	-0.234885	-0.3854	-0.320552
1.101609	1.281634	1.31452	1.415781	1.124975	1.033778	0.376362	0.143279	0.23797	-0.126326	0.558262	1.116712	-0.775079	-0.367688	-0.503693	-0.463055
1.6754	2.040989	1.945	1.885931	1.2978	1.265177	0.498932	0.179063	-0.058606	-0.301222	0.118511	0.676184	1.001138	1.561665	1.509572	0.978121
1.358732	1.60219	1.633483	1.656185	1.449293	1.410821	0.806848	0.311312	-1.108071	-0.837139	-1.615079	-0.716312	-0.00403599999999993	0.522243	0.233351	0.144346
1.792425	2.13237	1.95636	1.984672	0.462555	0.422532	-0.456929	-0.204639	0.068533	-0.200414	0.09337	0.769732	0.943972	1.459969	1.321585	0.856353
1.024724	1.37715	1.299215	1.321372	1.019913	1.009569	0.292878	0.098208	-0.294811	-0.359641	-0.287159	0.359864	0.377785	0.886586	0.678197	0.398853
1.320785	1.738358	1.616393	1.596319	0.71345	0.668	-0.139799	-0.00846899999999995	-0.819113	-0.652641	-1.103309	-0.202564	0.350302	0.814953	0.617342	0.37253
1.359993	1.657768	1.567557	1.51641	0.808479	0.76894	-0.257956	-0.0262469999999999	-0.532714	-0.47666	-0.467167	0.282731	1.51106	2.134692	1.985766	1.34106
1.753026	2.135982	1.944053	1.790706	1.134447	1.13531	0.374399	0.196525	-0.61948	-0.510077	-0.773998	0.041338	0.76904	1.408578	1.21168	0.797408
0.76918	1.148847	1.137015	1.101851	1.220527	1.265177	0.572084	0.249659	0.016724	-0.233599	0.269313	0.84736	0.448258	0.975488	0.757156	0.431019
1.067686	1.405506	1.322191	1.283294	0.781165	0.735898	0.055963	0.0180469999999999	-0.319093	-0.47666	-0.554925	0.130834	0.590458	1.153782	0.845773	0.527647
0.475045	0.878362	0.907127	0.871527	0.43679	0.384195	-0.536364	-0.177342	0.374136	-0.0681470000000001	0.64863	1.172865	1.06574	1.618544	1.390403	0.913595
1.045264	1.471899	1.295604	1.286516	1.029738	0.918492	0.055963	0.00910200000000017	-0.968609	-0.786362	-1.332828	-0.407721	0.208186	0.71215	0.335551	0.262581
0.371316	0.753738	0.758273	0.744962	1.02042	0.856282	-0.023319	-0.00859299999999985	-0.321344	-0.502208	-0.426365	0.321282	1.119821	1.821028	1.697481	1.067242
1.517303	1.956986	1.817075	1.546892	1.597528	1.465031	0.716672	0.220481	-0.099573	-0.344288	-0.043219	0.649003	0.221603	0.797848	0.69656	0.444108
0.401692	1.029144	0.974022	0.926831	1.276738	1.090392	0.329192	0.0972500000000001	-0.048531	-0.294197	0.076787	0.726013	-0.416925	0.106341	-0.180024	-0.159826
1.11046	1.75164	1.590851	1.45967	1.869461	1.644448	1.064143	0.369306	-0.160871	-0.402467	-0.290297	0.483736	-0.117314	0.313009	-0.012726	0.00550500000000004
0.389221	0.896094	0.863958	0.777292	1.002776	0.762165	0.011622	-0.0346760000000002	-1.005911	-0.895087	-1.534489	-0.510819	0.629224	1.25008	0.766491	0.598592
0.680166	1.242167	1.169806	0.994174	0.516347	0.246622	-0.812608	-0.335542	-0.43351	-0.502208	-0.524876	0.258832	1.369027	2.034258	1.7941	1.188243
0.259084	0.830831	0.766481	0.697782	0.669165	0.467963	-0.496621	-0.220732	-1.103665	-0.88644	-1.461328	-0.56113	0.849958	1.477898	1.36934	0.822564
1.595712	2.010469	1.889569	1.701051	0.906692	0.635735	-0.181495	-0.088187	-0.434776	-0.485732	-0.509774	0.229797	0.179059	0.709272	0.608315	0.315741
0.5179	1.114606	1.042307	0.983235	1.200891	0.956891	0.251557	0.053378	-0.532714	-0.543835	-0.66593	0.104444	-0.174758	0.343619	0.074394	0.042427
0.974179	1.443554	1.412502	1.163911	0.791654	0.668	-0.219926	-0.115155	-0.37181	-0.510459	-0.331094	0.333144	-0.375735	0.150887	-0.06066	-0.063133
0.483307	1.007829	0.942647	0.800357	0.173084	-0.083375	-1.010228	-0.444082	-0.993999	-0.879497	-1.534489	-0.589119	-0.67491	-0.221557	-0.450434	-0.334688
0.75116	1.211927	1.123427	0.973941	0.140525	-0.1315	-1.132386	-0.463209	-0.982003	-0.753586	-1.304145	-0.486232	0.660844	1.287935	1.114075	0.714595
0.076482	0.620292	0.687131	0.548519	0.0223679999999999	-0.163734	-1.295321	-0.562906	-0.532714	-0.568738	-0.715289	0.041338	-0.545038	-0.0572459999999999	-0.195099	-0.210195
1.556511	1.998784	1.853388	1.581647	0.173122	-0.0255079999999999	-1.298658	-0.545871	-0.065454	-0.368577	-0.002915	0.583593	-0.686407	-0.175069	-0.281357	-0.292347
0.613173	1.25461	1.221316	1.123363	0.63863	0.484222	-0.457145	-0.231489	-0.893918	-0.803989	-1.232567	-0.433809	-0.586717	-0.0268280000000001	-0.131117	-0.228291
0.436153	1.0185	0.974022	0.928323	-0.331596	-0.448897	-1.774357	-0.706217	-0.431957	-0.568442	-0.475574	0.184026	-0.606135	0.0463790000000001	-0.251984	-0.187695
0.829163	1.485755	1.341025	1.21688	0.499374	0.399426	-0.496483	-0.258029	-1.332664	-1.032599	-1.92601	-0.991165	0.549969	1.172531	1.04455	0.656786
-0.029361	0.558944	0.548068	0.57169	-0.00904499999999997	-0.0771219999999999	-1.250679	-0.500892	-0.581125	-0.593018	-0.882028	-0.018584	0.336529	1.038129	0.775907	0.592174
1.358732	1.975598	1.744046	1.591069	0.954353	1.096697	0.055963	0.045517	0.449525	0.047272	0.86015	1.365212	-0.132607	0.567002	0.304404	0.157837
0.78194	1.138711	1.178233	1.047832	0.156732	0.369668	-0.856646	-0.29567	0.304598	-0.052389	0.638281	1.177273	-0.792216	-0.103081	-0.291739	-0.266274
1.180504	1.738358	1.604647	1.510707	0.522311	0.686128	-0.416802	-0.142652	0.182104	-0.085705	0.37221	1.04896	-0.851192	-0.268306	-0.36392	-0.312668
0.666764	1.105771	0.997328	0.977844	0.905649	1.040095	-0.059101	0.00116399999999994	0.00698200000000002	-0.178033	0.202534	0.842219	-0.853219	-0.178663	-0.508848	-0.326811
1.536916	2.08677	1.865255	1.73176	1.562399	1.770372	0.890012	0.334064	-0.418821	-0.457383	-0.43462	0.378487	-1.50951	-0.858163	-1.153721	-0.866572
0.459578	0.834562	0.850388	0.852569	0.876097	1.050635	-0.097059	0.02891	-0.794334	-0.635205	-1.063399	-0.175947	0.413662	1.243408	1.085472	0.69029
1.816336	2.149536	2.133967	1.924448	1.336693	1.520937	0.427526	0.229059	-0.806982	-0.59252	-0.9932	-0.110792	-0.899236	-0.104162	-0.429108	-0.308574
1.035749	1.248039	1.318677	1.265992	2.145469	2.356698	1.608725	0.696874	-0.705771	-0.506686	-0.9019	0.020592	0.054601	0.781904	0.410706	0.344886
1.677949	2.02259	1.908703	1.779133	0.980996	1.07552	-0.014133	0.038903	0.447493	0.099166	0.833651	1.492119	1.293932	2.158606	1.969594	1.394302
1.037062	1.180419	1.215387	1.194975	0.865916	1.011649	-0.055738	0.00255400000000006	0.308746	-0.011722	0.471973	1.243526	0.213448	1.094276	0.743882	0.566726
1.997783	2.181386	2.110989	2.012168	1.842284	2.096408	1.216387	0.47365	-1.125078	-0.779578	-1.77635	-0.670588	0.783182	1.675696	1.309057	0.947506
0.833625	1.049576	1.11929	1.091854	1.415001	1.731343	0.633714	0.368322	0.030809	-0.019444	0.060296	0.894478	-0.527933	0.229694	-0.311222	0.013656
2.324404	2.610582	2.50856	2.370143	0.864435	1.111615	-0.130626	0.114092	-0.716924	-0.462358	-1.256038	-0.172298	0.433808	1.237724	0.955189	0.737545
1.358045	1.54623	1.656922	1.592651	2.130493	2.454931	1.561561	0.763344	0.191064	0.08704	0.220643	1.15159	-0.395502	0.350441	-0.052261	0.106712
2.086701	2.399932	2.344904	2.180948	1.416819	1.665551	0.557649	0.417152	0.041903	-0.047673	-0.283102	0.788738	0.861182	1.790442	1.442469	1.054947
1.438918	1.628817	1.737741	1.664618	1.272311	1.42745	0.316904	0.317385	0.440044	0.20961	0.464022	1.341688	0.753827	1.641779	1.338538	1.025761
1.600452	2.000778	2.010645	1.87388	1.126245	1.322526	0.153241	0.289199	-0.856052	-0.48567	-1.54578	-0.248444	0.075396	1.008506	0.290384	0.423236
1.195483	1.467911	1.619579	1.510662	1.184619	1.283096	0.273742	0.35319	-0.483298	-0.271416	-1.111861	0.092662	1.022163	1.998881	1.454003	1.244918
1.846697	2.150978	2.238261	2.04479	1.330861	1.454554	0.598652	0.527947	-0.23532	-0.097052	-0.625447	0.543603	0.676031	1.627579	1.201415	0.997155
0.908225	1.121754	1.330582	1.315153	1.908924	2.155205	1.296355	0.779129	-0.142245	-0.11266	-0.664972	0.520661	0.772634	1.675696	1.390339	1.079463
2.070855	2.226669	2.364204	2.22599	1.010811	1.199824	0.082809	0.34051	0.871677	0.471028	0.92464	1.832946	0.4732	1.463986	0.936354	0.860112
1.399342	1.4504	1.701539	1.671028	0.8634	1.13196	-0.079213	0.268359	1.108748	0.561826	1.317339	2.236978	1.033169	2.011293	1.436242	1.263431
1.521155	1.78973	2.04507	1.9725	1.406956	1.720067	0.543675	0.58473	0.662004	0.296032	0.588907	1.695297	1.020123	1.953252	1.14154	1.172523
2.340613	2.299704	2.451825	2.371441	1.560827	1.86512	0.697271	0.637372	0.133325	0.063164	-0.268584	0.916415	2.044228	3.216552	2.473176	2.113298
2.400412	2.546743	2.614044	2.453075	1.623677	1.78632	0.624106	0.565995	1.22345	0.746466	1.427391	2.358849	0.657475	1.567076	0.927261	0.956159
1.461221	1.402186	1.658312	1.697402	1.984569	2.210541	1.310683	0.841217	1.219271	0.706202	1.069557	2.170073	1.550733	2.557989	2.058558	1.621373
2.074081	2.220291	2.483632	2.326119	1.634849	1.773329	0.665996	0.603471	1.183596	0.633865	1.202502	2.147056	0.482724	1.40197	0.669957	0.830628
1.768993	1.719057	1.925621	1.952037	1.754632	2.040297	0.833921	0.732864	0.820569	0.449427	0.674558	1.683608	0.997807	1.825073	1.205288	1.181778
2.345064	2.656233	2.800577	2.691947	2.343918	2.59614	1.68868	1.015804	0.860292	0.48291	0.850468	1.683608	0.684498	1.544711	0.886049	0.901727
2.856087	2.918546	3.193418	3.057684	1.515362	1.652496	0.540434	0.561072	0.0612530000000001	0.007458	-0.630186	0.583688	1.413242	2.231058	1.671163	1.4207
2.650901	2.962453	3.178183	2.948473	1.507497	1.599363	0.379201	0.642349	1.121571	0.54486	0.980584	1.842323	1.635472	2.417604	1.988852	1.632861
1.662043	1.868304	2.21182	2.198823	2.361666	2.579293	1.724926	1.126164	0.370783	0.17604	-0.053756	0.959672	1.225537	2.057953	1.459758	1.284865
2.291193	2.512552	2.790463	2.624498	2.007939	2.102861	1.152655	0.888738	0.860292	0.492577	0.755609	1.662622	1.840163	2.599127	2.184198	1.77861
2.43263	2.594423	2.871284	2.669316	2.676519	2.836794	2.071729	1.198106	0.410473	0.194649	0.103929	1.160262	1.804068	2.578577	2.238707	1.756021
2.089787	2.433465	2.69498	2.515533	1.876812	1.995857	1.185338	0.851536	0.586229	0.325464	0.598206	1.473026	1.630051	2.521538	2.01724	1.632861
2.187135	2.515335	2.666103	2.613782	2.413407	2.53454	1.779509	1.32458	1.262933	0.7729	1.440427	2.20416	1.157521	1.964042	1.524163	1.151268
2.193501	2.644485	2.897657	2.717579	1.918677	1.731343	0.998901	0.847648	0.386892	0.67733	0.531275	1.229589	0.989167	1.495759	1.246679	0.793635
1.654196	2.064991	2.529724	2.327334	1.298885	0.876083	-0.092487	0.494173	0.097286	0.919093	0.438601	0.924262	2.124903	2.540182	2.447207	1.655788
0.805715	1.439739	2.221094	1.912869	1.687524	1.015514	0.179689	0.576145	0.149737	0.980841	0.576042	0.875623	1.031681	1.153782	1.313507	0.64812
1.465062	1.822916	2.462607	2.09211	1.747931	1.040095	0.18298	0.515653	0.485743	1.297972	1.319478	1.405211	2.254995	2.346994	2.475518	1.455944
1.121797	1.452673	2.169613	1.819453	1.384445	0.662181	-0.255945	0.247592	1.053708	1.407835	2.005133	2.014341	1.714314	1.828301	1.835913	1.105724
1.903364	2.206546	2.824307	2.420309	1.711226	1.170771	0.184703	0.595673	1.133976	1.317191	2.006704	2.014341	1.22979	1.487595	1.375199	0.839448
1.061037	1.588513	2.169613	1.897172	1.882002	1.445325	0.579468	0.797517	0.499863	0.991523	1.453331	1.496907	1.774938	2.03261	1.852379	1.244918
0.961662	1.471464	1.963099	1.731716	1.452531	1.117848	-0.094872	0.598331	0.758584	1.07737	1.8025	1.795376	1.692862	2.089226	1.949049	1.313904
1.015202	1.579449	2.116096	1.858313	2.069825	1.744727	0.812693	0.818794	-0.126441	0.456633	0.153899	0.541728	1.47101	1.975415	1.576625	1.187629
1.015202	1.541857	1.99366	1.726192	1.433783	1.142748	-0.05325	0.526531	0.87103	0.93927	1.477796	1.649912	-0.0141169999999999	0.47057	0.124207	0.137858
1.051436	1.650314	2.054839	1.843927	2.493609	2.238885	1.374446	1.122108	-0.123454	0.269196	-0.215767	0.300609	0.496328	1.074335	0.692467	0.555918
1.556866	2.074587	2.414484	2.198864	2.277852	2.110782	1.065525	1.077165	1.172119	1.064082	2.060524	2.16044	1.339851	2.009754	1.714855	1.199714
1.026708	1.590351	1.93938	1.775462	2.114374	2.019411	0.943553	1.00347	0.45779	0.61131	0.86015	1.138035	0.982601	1.583752	1.176656	0.839448
2.320193	2.887845	3.005996	2.764792	2.394669	2.387477	1.306045	1.148581	0.290063	0.504408	0.724562	1.1352	1.7363	2.399258	2.175334	1.500864
1.418625	1.85702	2.159604	1.94974	2.085266	2.019411	0.984176	1.017624	-0.14415	0.25436	0.147406	0.527801	1.469688	2.079043	1.860038	1.344462
2.496316	3.082077	3.14826	2.75636	1.374363	1.312779	0.142729	0.617021	-0.618805	-0.013922	-0.781946	-0.252202	1.293932	1.894982	1.766987	1.223831
1.339988	1.738358	2.036857	1.860594	2.08088	2.005331	0.89637	0.930381	-0.694077	-0.187783	-0.932937	-0.369634	-0.495734	0.031218	-0.381835	-0.197336
2.496316	2.928668	3.055936	2.747921	1.925503	1.8224	0.694945	0.836	-0.195433	0.099166	-0.125229	0.252903	0.342032	0.918199	0.552838	0.43614
1.852169	2.212505	2.379461	2.185572	2.603614	2.66752	1.725503	1.209033	-0.893918	-0.243306	-1.293402	-0.759026	0.311964	0.886218	0.512786	0.416499
1.831855	2.420409	2.541295	2.248206	2.359767	2.384013	1.419504	1.120515	-0.507053	-0.014302	-0.604337	-0.123347	0.925656	1.483386	1.185094	0.828498
1.004139	1.353363	1.602999	1.446673	1.653237	1.639552	0.54676	0.73713	0.835033	0.721308	1.477796	1.640333	2.611457	3.307153	3.079803	2.18765
2.399151	2.852145	2.841197	2.520293	2.179103	2.241436	1.143072	0.934895	0.942441	0.68153	1.502881	1.769714	0.659063	1.329407	0.944973	0.699336
1.022844	1.419961	1.633483	1.461046	2.027104	2.1378	1.102415	0.928534	0.386892	0.43179	0.640873	1.092929	1.702072	2.377879	2.10693	1.512517
2.146182	2.649796	2.606432	2.458782	0.836232	0.807818	-0.737698	0.318407	-0.667765	-0.161886	-1.03234	-0.210285	0.983471	1.65384	1.415417	1.01344
1.932912	2.359427	2.366273	2.272971	1.461008	1.48157	0.225089	0.652073	-0.002718	0.2469	0.031022	0.572408	0.268266	0.859208	0.623628	0.534671
1.934635	2.513816	2.45848	2.183971	2.435412	2.530153	1.537008	1.066237	-0.040693	0.220975	-0.011183	0.544271	0.054601	0.653587	0.428904	0.403314
2.20938	2.638384	2.541295	2.423361	1.824084	1.796828	0.625187	0.715086	0.304598	0.387312	0.570592	0.998985	0.313116	1.074335	0.904688	0.653539
1.517167	2.163597	2.151806	2.042664	2.249929	2.293082	1.293369	0.98315	0.623631	0.535516	1.021001	1.462348	0.441091	1.204842	1.034995	0.823628
2.38403	2.882787	2.919236	2.670278	1.784504	1.927892	0.700525	0.741639	0.082725	0.235902	0.329766	0.848407	1.215425	2.136327	1.755174	1.413108
1.715944	2.279066	2.335576	2.219363	1.910988	2.033705	0.706332	0.779702	-0.254346	-0.00131799999999999	-0.19311	0.43745	0.228463	0.942779	0.5003	0.515621
1.795683	2.279066	2.317971	2.13934	1.50857	1.61305	0.225089	0.517457	-0.278623	0.109832	-0.151363	0.555743	1.215425	2.182408	1.726568	1.368183
1.318078	1.798527	1.908703	1.792498	1.918232	2.032015	0.781398	0.723434	-0.340935	0.05808	-0.489629	0.323318	0.298101	1.146216	0.66368	0.567559
1.993574	2.436561	2.366273	2.219363	2.533842	2.616536	1.527649	0.963054	0.049581	0.217528	0.09197	0.843895	0.126596	1.028516	0.562133	0.554604
0.621098	1.085287	1.253572	1.223249	2.209812	2.238885	1.208531	0.862361	0.272605	0.331948	0.256922	0.916288	1.269874	2.204512	1.565226	1.28088
1.715057	2.250811	2.248411	2.007402	2.84593	2.965989	1.917783	1.156795	1.100864	0.774791	1.58301	2.06339	1.427635	2.399258	1.686182	1.380018
0.816789	1.392106	1.448423	1.459675	2.290223	2.384013	1.333891	0.979345	-0.002718	0.229159	-0.139829	0.618009	1.925102	2.937177	2.44634	1.856786
1.457652	1.891283	2.011686	1.847245	1.384445	1.402932	-0.014133	0.523627	0.738279	0.695508	1.156835	1.690301	1.349285	2.328997	1.973234	1.481356
1.059088	1.444318	1.474225	1.399304	1.365627	1.428674	0.147748	0.523627	-0.140598	0.177847	-0.261266	0.382287	0.870488	1.757393	1.43768	1.157718
1.200814	1.780679	1.786347	1.661363	1.690082	1.718126	0.503725	0.664758	-0.178543	0.108584	-0.352144	0.315839	0.725994	1.528946	1.195667	0.959917
1.536988	1.998784	2.112104	1.860594	1.134642	1.192952	-0.175475	0.359148	0.509254	0.53679	0.864168	1.423484	-0.420746	0.331887	0.027221	0.11466
1.359993	2.03667	2.064117	1.815891	1.296885	1.365544	-0.017943	0.472959	-0.31654	-0.019122	-0.489629	0.252903	0.180818	0.908446	0.635635	0.481981
1.081125	1.657768	1.65855	1.570922	0.71345	0.724926	-0.776287	0.240975	0.059035	0.207903	0.110483	0.730499	0.180283	0.81872	0.705861	0.495018
1.319204	1.822916	1.816696	1.651397	1.467939	1.418192	0.33826	0.622692	-0.706369	-0.179826	-0.882028	-0.09684	-0.67491	0.00161900000000004	-0.180024	-0.118442
1.359306	1.869102	1.931807	1.626204	1.191817	1.234712	-0.097059	0.454184	0.054434	0.212433	0.329766	0.853241	-0.361884	0.256157	0.098951	0.109146
0.549237	1.244668	1.314505	1.13937	1.552269	1.484217	0.336344	0.559592	-0.492541	-0.029109	-0.569764	0.228949	0.181418	1.003625	0.894659	0.58647
1.399231	2.03667	2.003816	1.681261	1.609503	1.601082	0.454337	0.621593	0.153465	0.219932	0.251077	0.931433	-0.740321	0.061698	-0.278591	-0.084942
0.652128	1.339721	1.419713	1.195642	1.543888	1.496259	0.376362	0.63108	0.054434	0.212433	0.281331	0.920539	-0.822668	-0.134862	-0.414526	-0.26743
1.084408	1.72582	1.756885	1.48582	0.848618	0.778391	-0.576292	0.240492	0.214614	0.263288	0.456582	1.009753	0.038195	0.729161	0.565227	0.38451
0.706003	1.362942	1.393524	1.117923	1.693177	1.627626	0.529845	0.657337	-1.01945	-0.383029	-1.474598	-0.551459	-0.846981	-0.344543	-0.541711	-0.351081
1.319939	1.953051	1.847198	1.545841	1.656521	1.562095	0.414351	0.578485	-0.531685	-0.10537	-0.753135	0.096518	0.236002	0.81872	0.825225	0.449469
0.591909	1.098975	1.251215	0.988777	1.191512	1.025884	-0.377189	0.312517	0.068533	0.164412	0.123625	0.780896	-0.203114	0.389728	0.281771	0.155257
1.360791	2.127417	2.015371	1.691193	0.848618	0.710203	-0.775759	0.169917	-0.430111	-0.128892	-0.831939	-0.070194	0.548475	1.236669	1.104892	0.788222
0.850018	1.537274	1.565319	1.380799	1.371198	1.145948	-0.022339	0.347645	-0.467909	-0.136746	-0.660813	0.099038	0.522875	1.346962	1.095917	0.828498
1.006152	1.855789	1.859614	1.576163	1.456619	1.223575	0.057138	0.410658	-0.469519	-0.171924	-0.773998	0.069767	0.223991	0.944997	0.723072	0.527833
1.240246	1.877189	1.925561	1.581001	1.457911	1.299008	0.020903	0.448292	-0.894769	-0.42372	-1.324544	-0.408714	-0.232564	0.346385	0.147376	0.11466
1.47751	2.184931	2.124495	1.792498	1.466546	1.326526	0.019682	0.395159	-0.205965	0.057462	-0.125229	0.64072	0.124219	0.840872	0.562133	0.449253
1.733682	2.195704	2.195379	1.901769	1.589193	1.365544	0.1766	0.4046	-0.116555	0.093367	-0.242298	0.488434	0.067805	0.800068	0.469256	0.409852
1.556622	2.271566	2.177707	1.962642	1.438005	1.27373	-0.060124	0.333282	-0.030845	0.126588	0.032917	0.820136	-0.219535	0.516259	0.14144	0.271266
1.299087	1.793121	1.817075	1.560829	1.372085	1.206895	-0.019115	0.37883	0.441313	0.438261	0.777363	1.462883	1.150681	1.963934	1.778893	1.424882
1.636335	2.219511	2.106693	1.818119	0.634663	0.645749	-0.980506	0.029251	0.980567	0.735208	1.641817	2.252751	0.770463	1.687685	1.460306	1.178668
1.157017	1.764177	1.78014	1.500031	0.971168	0.882433	-0.657012	0.201427	0.623631	0.500929	1.00374	1.690301	1.365023	2.392209	2.10195	1.610922
2.218018	2.792896	2.606432	2.199987	1.721879	1.718616	0.314606	0.58189	-0.565123	-0.174122	-0.910213	0.156678	0.96638	1.976093	1.729001	1.375508
1.116999	1.597849	1.62155	1.383057	1.106453	1.12028	-0.41227	0.321068	0.26184	0.295053	0.275855	1.191575	-0.467517	0.367413	0.118338	0.297338
2.137414	2.710181	2.48	2.164257	0.990506	0.950751	-0.454759	0.266288	-0.972274	-0.326757	-1.602968	-0.50036	0.435594	1.358702	1.007579	0.914212
1.398014	1.933769	1.761738	1.658457	1.747931	1.757813	0.508739	0.55647	0.439709	0.4577	0.701116	1.412152	0.780482	1.802198	1.512516	1.254106
2.045906	2.526577	2.384316	2.144871	2.517234	2.654199	1.474338	0.956452	-0.49976	-0.112476	-0.858197	0.156678	-0.642677	0.183874	-0.165312	0.052199
2.029818	2.354505	2.344904	2.035436	1.456483	1.452783	0.118076	0.424552	0.695027	0.542652	0.908862	1.601914	0.791154	1.733635	1.559143	1.133418
2.514739	2.881169	2.72676	2.389143	2.347926	2.330995	1.25486	0.853839	0.883371	0.743637	1.375533	1.953802	-0.132161	0.796561	0.425567	0.509683
1.521155	1.986405	1.992491	1.707241	1.458734	1.371972	6.7999999999957E-05	0.354316	-0.391454	-0.099704	-1.049898	-0.036273	0.641329	1.556901	1.272163	1.105724
1.945293	2.481567	2.473644	2.153428	1.292844	1.211832	-0.123779	0.290217	0.134955	0.183546	-0.278494	0.715324	0.557568	1.532504	1.070303	0.956159
1.923727	2.40293	2.362564	1.999223	2.130493	1.983202	0.920488	0.679471	-0.021053	0.172543	-0.434151	0.555051	0.818373	1.743269	1.294839	1.114748
1.398771	1.993574	1.974304	1.671028	1.555052	1.426449	0.120073	0.415946	-0.29286	-0.00131799999999999	-0.704422	0.299615	1.280735	2.36023	1.864899	1.60987
1.906916	2.275675	2.434779	2.062366	1.661843	1.533033	0.241607	0.433149	0.688283	0.516727	0.65231	1.392376	1.905838	2.953479	2.556059	2.047074
2.332195	2.881169	2.912165	2.489507	2.754568	2.590971	1.618673	0.950311	1.135734	0.809516	1.467244	2.16474	0.871353	1.976093	1.465629	1.363663
2.005145	2.52375	2.532476	2.22599	2.194488	1.930642	0.890354	0.63267	0.283514	0.369426	-0.0597309999999999	0.87613	0.880744	1.918888	1.430271	1.337879
1.702769	2.360598	2.434779	2.053048	1.383133	1.251818	-0.243522	0.270772	-0.196207	0.079429	-0.874577	0.188089	1.111037	2.082331	1.613011	1.428889
1.195483	1.79363	1.937826	1.697402	1.702185	1.559476	0.202603	0.407333	0.150229	0.362114	-0.36013	0.715324	1.002218	1.871585	1.547737	1.318322
1.398329	1.922522	2.130664	1.825708	2.104859	1.879492	0.818546	0.628924	0.905855	0.672483	0.87791	1.661289	-0.014848	0.842863	0.258711	0.550271
2.43263	2.962453	3.004615	2.553871	2.271245	2.025261	1.101955	0.711402	0.550367	0.58519	0.383317	1.381906	0.985842	1.894757	1.383658	1.296819
2.268829	2.804536	2.909817	2.399064	2.068779	1.746201	0.780584	0.622096	1.509681	1.018058	1.63961	2.367346	0.118028	1.028514	0.649572	0.797125
1.601617	2.036411	2.301192	1.997924	1.474641	1.224046	0.0891510000000001	0.312023	0.98482	0.735215	0.840385	1.673996	1.114892	2.035446	1.583817	1.496246
2.146341	2.649789	2.815206	2.407871	1.45573	1.169939	-0.115606	0.312023	0.632541	0.542621	0.217399	1.118345	1.344338	2.36023	1.947499	1.665614
1.398771	1.879645	2.202448	1.879146	1.865377	1.572739	0.456907	0.512317	-0.033345	0.127322	-0.664972	0.320071	0.969892	1.836722	1.513083	1.383427
2.029818	2.520934	2.76121	2.390247	1.854	1.652496	0.617375	0.527947	0.655615	0.563931	0.367569	1.240732	0.337071	1.114183	0.680515	0.80976
1.825153	2.161031	2.378057	2.125828	1.523252	1.185864	0.0495610000000001	0.281496	0.718323	0.518711	0.228641	1.130594	1.22979	2.115801	1.683409	1.440644
1.683172	2.282024	2.490477	2.171414	2.092238	1.799289	0.871943	0.593476	0.489951	0.399728	0.028115	0.978254	2.043039	3.066399	2.666254	2.19278
1.906916	2.354505	2.567961	2.317193	1.966344	1.692994	0.669564	0.605161	0.957149	0.616356	0.606965	1.573733	1.395905	2.281133	1.820131	1.563697
2.962243	3.440685	3.689371	3.173036	1.863095	1.693852	0.511557	0.535491	0.945162	0.604258	0.795195	1.612742	0.811215	1.672753	1.276538	1.224838
1.972567	2.339459	2.689555	2.363752	2.73641	2.503877	1.604424	0.957299	0.22045	0.287888	-0.271233	0.75991	0.07654	0.848811	0.473695	0.611867
2.235353	2.750595	2.950023	2.573369	2.151981	1.879492	0.871943	0.600012	0.786857	0.537739	0.705452	1.452204	1.149709	1.998881	1.605994	1.408919
2.555846	2.834741	3.160185	2.736992	2.325073	1.985176	1.031382	0.662712	0.922632	0.523482	0.777453	1.643289	0.236129	0.948935	0.516714	0.663343
2.779633	3.158772	3.416949	3.054989	2.474571	2.23843	1.32058	0.716809	0.291501	0.239499	-0.273656	0.623806	0.851065	1.661991	1.100433	1.035509
2.661471	2.993827	3.384307	2.965625	2.199819	1.985176	0.951775	0.605161	0.496919	0.385175	0.053119	0.908792	0.818373	1.534931	1.007579	0.868338
2.761906	3.19856	3.577247	2.973588	2.104056	1.852257	0.871943	0.595064	1.081717	0.780838	1.176363	1.652961	1.745242	2.495763	2.143057	1.666342
2.04882	2.233085	2.645851	2.244248	2.676519	2.275062	1.562352	0.839247	0.188512	0.220784	-0.223119	0.526565	1.196033	1.998881	1.576905	1.251431
2.12753	2.520934	2.82472	2.416672	2.342804	1.943381	1.310683	0.699573	0.566589	0.291401	0.22736	0.97376	1.589763	2.345729	1.99154	1.58787
1.964419	2.242784	2.746694	2.316581	2.223685	1.784426	0.860183	0.533664	0.871677	0.509563	0.754468	1.372852	0.949894	1.593374	1.119514	1.026706
2.187135	2.686435	3.082888	2.632995	2.762546	2.244245	1.665812	0.821516	0.691398	0.405893	0.643008	1.243526	0.839068	1.446163	1.046567	0.852015
2.024163	2.327554	2.795509	2.325529	2.561985	2.15258	1.504365	0.829795	0.283514	0.17669	-0.340817	0.52128	1.494541	2.215545	1.831551	1.434478
2.76296	3.134369	3.466901	2.847707	2.348435	1.849926	1.060318	0.666343	0.228612	0.158377	-0.314113	0.544271	1.327237	1.986925	1.59414	1.254106
1.779135	2.057796	2.657929	2.118082	2.61406	2.046283	1.457623	0.81796	0.612759	0.387312	0.102956	0.934104	1.633848	2.459821	1.922022	1.56597
2.097162	2.741121	3.025521	2.514079	2.530448	2.032015	1.406373	0.743201	0.495042	0.276616	-0.263938	0.674327	1.460948	2.12395	1.872242	1.368183
1.875555	2.195132	2.712698	2.190824	2.336103	1.849127	1.006636	0.598795	0.603479	0.368795	0.158719	0.90539	1.33182	2.066924	1.652065	1.290037
1.637019	2.240545	2.681527	2.128552	2.324338	1.862007	1.043914	0.607237	0.46331	0.335643	0.016398	0.90539	0.931236	1.620195	1.087156	0.955674
2.014572	2.362666	2.967554	2.334302	2.18915	1.613596	0.961595	0.58903	0.369844	0.265677	-0.050555	0.758628	0.944325	1.632311	1.18739	1.079463
1.736398	2.324207	2.764021	2.137812	2.447577	1.83566	1.200314	0.633867	0.688283	0.409184	0.250962	1.066907	0.442596	0.97704	0.652114	0.633403
1.795683	2.324207	2.781067	2.25394	1.925755	1.195726	0.554841	0.398763	0.369844	0.180967	-0.038598	0.797995	1.170134	1.850201	1.466856	1.24788
2.292187	2.916356	3.063238	2.593207	2.103154	1.497689	0.828305	0.495905	-0.142407	-0.091333	-0.798582	0.072057	1.211885	1.804726	1.466856	1.214902
0.758316	1.37244	1.737232	1.393388	2.161317	1.614364	0.950587	0.565997	0.00690499999999999	0.042136	-0.387149	0.327693	0.0532649999999999	0.597785	0.178955	0.351056
2.56925	3.15474	3.299305	2.646091	1.576777	1.015514	0.190184	0.349771	1.094998	0.665038	1.43363	1.905472	0.917862	1.671696	1.433563	1.164708
1.677949	2.15655	2.366713	1.921795	2.493609	2.055739	1.46957	0.723212	0.276978	0.236629	-0.031794	0.64072	0.139344	0.777739	0.491041	0.56061
1.694869	2.302711	2.445181	1.943565	1.827411	1.365544	0.355504	0.394326	0.785726	0.401585	0.881614	1.297217	0.311964	1.003625	0.732853	0.646248
0.88413	1.433953	1.645476	1.272604	1.900133	1.484217	0.590088	0.490888	-0.414472	-0.154366	-0.852802	-0.099435	1.750508	2.635184	2.459699	1.879102
2.204321	2.93367	2.963788	2.449929	1.411896	1.09308	0.027758	0.232283	0.025782	0.090642	-0.291577	0.44085	1.419584	2.214081	2.038351	1.57054
0.64879	1.287375	1.602999	1.258408	1.831588	1.575441	0.508739	0.489967	-0.12666	-0.044622	-0.283818	0.363159	-0.475946	0.0463790000000001	-0.156853	0.062947
2.283409	3.053002	3.10324	2.538325	1.543888	1.187921	0.184703	0.275659	0.425047	0.291983	0.547346	1.052692	1.125528	1.87527	1.731825	1.364198
1.200814	1.911118	2.024239	1.525567	2.867515	2.53044	1.928791	0.903571	-0.452597	-0.246639	-0.882943	-0.085739	0.733077	1.409923	1.40442	1.021698
1.57615	2.471337	2.562514	1.936954	2.198665	1.822292	1.061791	0.550183	0.040172	-0.019122	-0.352144	0.378487	1.255835	1.998829	1.852379	1.352347
0.315037	1.104182	1.348402	0.942887	1.457911	1.058116	0.14435	0.195359	1.346635	0.700076	1.875919	2.235385	0.871477	1.581886	1.491614	1.091105
