fnirSoft:	Exported Text File
Version:	4.2
ExportDate:	12/18/2023 12:00:36 PM
VariableInfo
Name:	oxygraph4.hbo.Block1
Size:	2036 x 16
Type:	Numeric
Content:	Hemoglobin
Date:	12/18/2023 12:00:25 PM
Notes:	Oxygenated-hemoglobin concentration changes data saved by Oxygraph from file C:\Users\Anette Johansson\Documents\COBI Studio Data\LRV patienter\0003p_group1_R\FILIPPA_0003p_1_01181508.oxy
Labels:	HBO	DATA
VariableData
Hemoglobin	Hemoglobin	Hemoglobin	Hemoglobin	Hemoglobin	Hemoglobin	Hemoglobin	Hemoglobin	Hemoglobin	Hemoglobin	Hemoglobin	Hemoglobin	Hemoglobin	Hemoglobin	Hemoglobin	Hemoglobin
Optode1	Optode2	Optode3	Optode4	Optode5	Optode6	Optode7	Optode8	Optode9	Optode10	Optode11	Optode12	Optode13	Optode14	Optode15	Optode16
0.206852	0.0085	-0.394525	-0.158975	-0.42741	-0.441878	-0.410343	-0.638696	-0.507909	-0.511631	-0.506633	-0.523125	-0.513449	-0.410893	-0.276982	-0.171127
0.057166	-0.489626	-0.641422	-0.419127	-0.474128	-0.643846	-0.449392	-0.829825	-0.687076	-0.741674	-0.783799	-0.674052	-0.295325	-0.107522	-0.054569	-0.162909
0.141867	-0.356909	-0.200989	-0.174797	-0.422219	-0.475264	-0.403841	-0.812345	-0.639204	-0.575134	-0.57736	-0.544521	-0.919439	-0.771456	-0.562671	-0.220497
0.034733	-0.755905	-0.739427	-0.646786	-0.689571	-0.985678	-0.622241	-1.267775	-0.801624	-0.761928	-0.70491	-0.778634	-0.752864	-0.67674	-0.371886	-0.179348
0.118437	-0.845457	-1.04951	-0.982761	-1.065308	-1.692374	-0.909939	-2.00732	-1.131879	-1.265068	-1.188303	-1.221348	-0.659459	-0.566181	-0.162149	-0.171127
0.118704	-1.079155	-1.517764	-1.35998	-1.303019	-2.131708	-1.115197	-2.542643	-1.495284	-1.851354	-1.656313	-1.742729	-1.063067	-1.101575	-0.593503	-0.138274
0.172718	-0.873302	-1.259835	-1.227692	-1.13495	-1.87931	-1.06922	-2.533279	-1.765188	-2.322084	-1.95053	-2.102491	-1.245318	-1.301319	-0.754787	0.074103
-0.012732	-1.250329	-1.887936	-1.7546	-1.215629	-2.015525	-1.18249	-2.859209	-1.832883	-2.459566	-1.95904	-2.182818	-1.015684	-1.090422	-0.604645	0.244182
0.176625	-0.979926	-1.496799	-1.467848	-1.150808	-1.743093	-1.152005	-2.824068	-1.801884	-2.442458	-1.760353	-2.126605	-1.220448	-1.411661	-0.795293	0.340793
-0.060956	-1.379465	-1.899734	-1.856844	-1.377629	-2.158571	-1.355374	-3.21719	-1.921689	-2.678384	-1.858044	-2.205997	-1.369336	-1.673207	-1.03232	0.356854
-0.195866	-1.321571	-1.485436	-1.571994	-1.388308	-2.170436	-1.365629	-3.319702	-2.128835	-3.020689	-2.113301	-2.316296	-1.445896	-1.668541	-1.131538	0.380925
-0.291595	-1.512665	-1.809511	-1.827344	-1.347241	-2.052062	-1.369937	-3.254428	-1.96896	-2.778496	-1.854574	-1.956389	-1.378539	-1.546414	-1.046434	0.348825
-0.128701	-1.31	-1.43713	-1.496973	-1.422939	-2.105423	-1.413394	-3.342082	-1.953122	-2.69012	-1.857319	-1.777162	-1.112477	-1.040739	-0.749735	0.276432
-0.14257	-1.287544	-1.323816	-1.383952	-1.17161	-1.599406	-1.166907	-2.806567	-1.85642	-2.482073	-1.658745	-1.445827	-0.8069	-0.52446	-0.388771	0.340793
-0.134294	-1.329254	-1.341161	-1.447496	-1.110591	-1.411722	-1.101316	-2.649345	-1.781617	-2.278862	-1.618854	-1.264066	-0.752001	-0.352241	-0.35308	0.308635
-0.248118	-1.44818	-1.523817	-1.541192	-0.915119	-1.057218	-0.866683	-2.251932	-1.768757	-2.328475	-1.706263	-1.251365	-0.867765	-0.436556	-0.517398	0.252249
-0.241933	-1.299926	-1.253285	-1.312446	-0.911567	-1.06992	-0.80909	-2.144345	-1.625581	-2.202476	-1.506581	-1.058987	-0.895401	-0.450452	-0.620101	0.228039
-0.177128	-1.289242	-1.15301	-1.253171	-0.722338	-0.653043	-0.600205	-1.777244	-1.500466	-2.090529	-1.424427	-0.977529	-1.079632	-0.629887	-0.834048	0.268185
-0.12812	-1.163538	-0.892337	-1.090613	-0.628397	-0.523263	-0.511035	-1.701929	-1.295869	-1.928233	-1.259398	-0.889908	-0.853259	-0.329221	-0.548017	0.372904
-0.087071	-0.960477	-0.535473	-0.802794	-0.645505	-0.705963	-0.458911	-1.754023	-0.964258	-1.547437	-0.76283	-0.523404	-0.937691	-0.450452	-0.737725	0.380925
-0.104755	-0.954368	-0.625279	-0.868328	-0.659632	-0.919601	-0.477471	-1.88101	-1.057258	-1.854498	-1.099127	-0.848085	-0.633799	-0.191231	-0.506081	0.460974
-0.120407	-1.097695	-0.847988	-1.005155	-0.683119	-1.04327	-0.511392	-1.944891	-0.980473	-1.819368	-0.981512	-0.782176	-0.787981	-0.392783	-0.697091	0.412979
-0.091114	-1.086372	-0.764592	-0.966016	-0.912072	-1.440747	-0.656275	-2.174108	-0.886724	-1.695403	-0.888849	-0.716936	-0.744261	-0.322705	-0.634482	0.516838
-0.104755	-1.002745	-0.731237	-0.896716	-0.948102	-1.587257	-0.686717	-2.258622	-0.915701	-1.752393	-1.043969	-0.826279	-0.933351	-0.585441	-0.834048	0.428989
-0.175021	-1.038683	-0.913358	-1.030239	-0.806428	-1.361747	-0.607324	-2.034747	-0.827425	-1.621387	-0.971396	-0.719605	-0.712423	-0.291659	-0.513274	0.476949
-0.100746	-0.828544	-0.593611	-0.762933	-0.868803	-1.424964	-0.64201	-2.030573	-0.850615	-1.538381	-1.030959	-0.806483	-1.108877	-0.745833	-0.911074	0.428989
-0.135959	-0.948771	-0.775967	-0.896716	-0.875946	-1.390615	-0.647914	-1.908306	-0.911147	-1.561599	-1.062443	-0.867525	-1.217856	-0.777766	-0.920853	0.40497
-0.122293	-0.918819	-0.686389	-0.797013	-1.01024	-1.655981	-0.76765	-2.021121	-0.912657	-1.418528	-1.006156	-0.867217	-1.390335	-1.003003	-1.075621	0.38871
-0.202304	-1.027337	-0.92511	-0.987001	-0.792902	-1.135133	-0.579185	-1.59034	-0.892643	-1.373009	-0.986562	-0.845559	-1.340401	-0.950898	-1.024944	0.428742
-0.223789	-1.069556	-0.931025	-0.939379	-1.010094	-1.559562	-0.791652	-1.9252	-0.938883	-1.430188	-1.026857	-0.890262	-1.145242	-0.732834	-0.864102	0.476949
-0.253018	-1.159469	-1.112999	-1.099165	-1.142882	-1.816609	-0.924287	-2.050314	-0.821462	-1.171927	-0.800953	-0.738574	-1.046495	-0.662568	-0.804033	0.492644
-0.176966	-0.918819	-0.736951	-0.718931	-1.030528	-1.455715	-0.853573	-1.760544	-0.909645	-1.316884	-0.961969	-0.887094	-1.108877	-0.752165	-0.911074	0.500891
-0.157456	-0.828543	-0.5287	-0.536074	-1.0133	-1.448207	-0.802117	-1.760544	-0.974378	-1.391893	-1.087328	-0.995955	-1.231591	-0.950399	-1.044938	0.532774
-0.20429	-0.888812	-0.641422	-0.622484	-0.971263	-1.379214	-0.76746	-1.614807	-0.884738	-1.303743	-0.955738	-0.868499	-1.148996	-0.841884	-0.998181	0.548699
-0.190624	-0.912742	-0.57386	-0.532199	-0.906815	-1.292705	-0.730849	-1.593859	-0.869234	-1.364851	-0.990004	-0.911305	-1.188119	-0.9253	-1.078608	0.540738
-0.163317	-0.954866	-0.635754	-0.622484	-0.778265	-0.96365	-0.623375	-1.399855	-0.662439	-1.032397	-0.599289	-0.610227	-0.727168	-0.450452	-0.639143	0.620219
-0.161383	-1.069556	-0.734714	-0.686955	-0.74642	-0.99155	-0.597002	-1.314678	-0.860021	-1.363065	-0.917178	-0.870669	-0.836425	-0.565871	-0.675593	0.636081
-0.016452	-0.780288	-0.228077	-0.284386	-0.574032	-0.69613	-0.449399	-1.062915	-0.70425	-1.19747	-0.724821	-0.71852	-1.044952	-0.777766	-0.850092	0.620219
0.004955	-0.725902	-0.114895	-0.171152	-0.532442	-0.847508	-0.410071	-1.169532	-0.564177	-1.043551	-0.645753	-0.590606	-0.492141	-0.168125	-0.396042	0.691512
-0.022386	-0.750162	-0.094458	-0.174797	-0.323382	-0.458987	-0.2259	-0.8493	-0.513312	-1.058604	-0.645972	-0.548343	-0.453029	-0.159557	-0.360897	0.683601
-0.018516	-0.768416	0.028989	-0.137473	-0.44535	-0.773734	-0.317676	-1.069396	-0.482997	-1.133307	-0.687809	-0.589941	-0.315405	0.028581	-0.163789	0.707324
0.018946	-0.792368	0.080763	-0.098815	-0.333122	-0.702883	-0.250559	-1.057174	-0.491474	-1.156079	-0.765144	-0.635067	-0.30958	0.005698	-0.110104	0.699419
-0.020331	-0.828543	0.023913	-0.20868	-0.25326	-0.737339	-0.190394	-1.051755	-0.282626	-0.822292	-0.521305	-0.395543	-0.459649	-0.108247	-0.27383	0.651607
-0.002523	-0.822555	0.143028	-0.083112	-0.166064	-0.501705	-0.161624	-0.997584	-0.166931	-0.749273	-0.381217	-0.220111	-0.442691	-0.08199	-0.304251	0.643685
-0.018285	-0.980526	0.008194	-0.219927	-0.153741	-0.564321	-0.147888	-1.013604	-0.168192	-0.672478	-0.313343	-0.132069	-0.399757	-0.014702	-0.278903	0.699077
-0.018285	-1.00111	0.060003	-0.170481	-0.16715	-0.621056	-0.17117	-1.021741	-0.24322	-0.77126	-0.396348	-0.19816	-0.312316	0.067088	-0.268868	0.675688
0.048432	-1.164076	-0.085489	-0.261871	0.005389	-0.222498	-0.047896	-0.72029	-0.355994	-0.920475	-0.551275	-0.307935	-0.182788	0.217361	-0.189046	0.738914
0.015073	-1.067424	0.008194	-0.151361	-0.084299	-0.435429	-0.186283	-0.924041	-0.411515	-0.949554	-0.620977	-0.395703	-0.544319	-0.128488	-0.518369	0.667773
0.048432	-1.037304	0.07561	-0.060095	-0.190724	-0.53799	-0.265444	-1.053142	-0.449376	-0.924138	-0.608581	-0.351899	-0.419361	0.002477	-0.448293	0.715225
0.120623	-0.97028	0.194391	0.053979	-0.285102	-0.637075	-0.32138	-1.073512	-0.545301	-0.98241	-0.792982	-0.483603	-0.684074	-0.221102	-0.631697	0.675688
0.054017	-1.136596	-0.028323	-0.07867	-0.190724	-0.362526	-0.239549	-0.85414	-0.519315	-0.945873	-0.774733	-0.504534	-0.84254	-0.345246	-0.77516	0.659854
0.138068	-0.842173	0.291793	0.191351	0.023003	0.17147	-0.052509	-0.339061	-0.277742	-0.472661	-0.287014	-0.154998	-0.739134	-0.151093	-0.601025	0.651933
0.021025	-1.189649	-0.240467	-0.166676	-0.224163	-0.167374	-0.211133	-0.582505	-0.465656	-0.653845	-0.563397	-0.37241	-0.94075	-0.366944	-0.748048	0.644008
0.181896	-0.800888	0.338722	0.322368	-0.372923	-0.441878	-0.32385	-0.72029	-0.740179	-1.021958	-1.025597	-0.764044	-0.528345	0.088134	-0.350804	0.683601
-0.016248	-1.261835	-0.42609	-0.277593	-0.509628	-0.548004	-0.424442	-0.855948	-0.877101	-1.138503	-1.162159	-0.895164	-1.052004	-0.481091	-0.83663	0.604345
0.159965	-0.908916	0.070297	0.130795	-0.643185	-0.846097	-0.488654	-1.011494	-0.622177	-0.779117	-0.744501	-0.58935	-0.945768	-0.313215	-0.64891	0.643685
0.093316	-1.075781	-0.167154	-0.105458	-0.237372	-0.038646	-0.175642	-0.33465	-0.456005	-0.578484	-0.4899	-0.416221	-1.02508	-0.429245	-0.758117	0.636081
0.087319	-1.064104	-0.130729	-0.071176	-0.195134	-0.044725	-0.136038	-0.338211	-0.365647	-0.537321	-0.419386	-0.351223	-0.827591	-0.247186	-0.614461	0.659854
-0.071267	-1.344988	-0.551788	-0.454098	-0.332363	-0.518183	-0.261351	-0.75532	-0.276095	-0.444452	-0.313343	-0.263916	-0.81704	-0.331421	-0.662411	0.667773
-0.000994	-1.080486	-0.063533	-0.1401	-0.178391	-0.204632	-0.180924	-0.59002	-0.197576	-0.328058	-0.143294	-0.132251	-0.498679	-0.020481	-0.419813	0.707324
-0.157461	-1.41618	-0.585531	-0.596782	-0.318905	-0.673397	-0.311695	-0.956138	-0.395311	-0.653866	-0.488726	-0.417412	-0.286846	0.131196	-0.26402	0.706978
0.010541	-1.068809	0.085893	-0.109761	-0.057991	-0.288924	-0.122875	-0.627296	-0.154764	-0.363633	-0.191575	-0.198226	-0.0181	0.327845	-0.074663	0.754693
-0.135959	-1.330492	-0.297546	-0.4294	-0.006928	-0.331319	-0.094164	-0.660701	-0.249594	-0.46299	-0.312101	-0.263702	-0.249943	0.052368	-0.305873	0.707324
-0.091114	-1.290308	-0.229478	-0.421345	0.035774	-0.313478	-0.047544	-0.541242	-0.586002	-0.891683	-0.811693	-0.549129	-0.25577	0.108172	-0.369396	0.691512
-0.145742	-1.378213	-0.337241	-0.480766	-0.007487	-0.388294	-0.115358	-0.571387	-0.286213	-0.418159	-0.322671	-0.110622	-0.207463	0.24777	-0.281729	0.699419
-0.065474	-1.28487	-0.149964	-0.351339	0.18599	0.115003	0.025089	-0.106804	-0.40211	-0.427876	-0.429732	-0.176136	-0.427838	0.049041	-0.45479	0.715225
-0.036069	-1.149435	0.053171	-0.171412	0.408686	0.571325	0.158331	0.265435	-0.52355	-0.502876	-0.643432	-0.286193	-0.213394	0.432655	-0.123851	0.715225
-0.000994	-1.087673	0.038849	-0.120787	0.310754	0.428536	0.101875	0.163407	-0.366954	-0.256891	-0.417013	-0.066008	-0.196404	0.480246	-0.154398	0.683601
-0.008711	-0.993839	0.085573	-0.016996	0.1945	0.348747	0.057977	0.136638	-0.193926	0.087322	-0.094749	0.19887	-0.070385	0.618164	-0.026291	0.715225
0.006702	-1.061845	-0.028323	-0.032533	0.151466	0.476415	0.043967	0.226441	-0.466893	-0.269819	-0.466391	-0.08794	-0.143514	0.586451	-0.080866	0.715225
-0.051791	-1.059847	-0.092376	-0.082547	0.018462	0.140269	-0.086563	-0.037137	-0.438501	-0.224665	-0.4401	-0.176167	-0.377327	0.331113	-0.270497	0.651933
-0.026524	-0.864997	0.070432	0.08612	-0.123598	-0.032415	-0.172573	-0.158086	-0.443872	-0.18224	-0.399549	-0.132159	-0.213969	0.501731	-0.087094	0.699419
-0.020331	-0.892767	0.018204	0.102116	-0.156385	0.021966	-0.242293	-0.262498	-0.596043	-0.421986	-0.650747	-0.32946	-0.499482	0.175854	-0.400279	0.628152
-0.030143	-0.972774	-0.198294	-0.021315	-0.271187	-0.240501	-0.332015	-0.361004	-0.6569	-0.461511	-0.795626	-0.505215	-0.222131	0.49104	-0.099625	0.683601
-0.008289	-0.817364	0.018204	0.156118	-0.398313	-0.495272	-0.444555	-0.623476	-0.900611	-0.800405	-1.121744	-0.787543	-0.377204	0.306018	-0.19009	0.707324
0.001365	-0.834287	-0.0952	0.11303	-0.378101	-0.368901	-0.446132	-0.53363	-0.74318	-0.554461	-0.878526	-0.568693	-0.731434	-0.032119	-0.505062	0.699419
0.003176	-0.864997	-0.136056	0.09333	-0.399821	-0.37532	-0.476126	-0.597722	-0.679705	-0.45688	-0.769181	-0.545948	-0.642632	0.087614	-0.391303	0.707324
0.002857	-0.965792	-0.315759	-0.040713	-0.421589	-0.49804	-0.501978	-0.650332	-0.679705	-0.434449	-0.811236	-0.567565	-0.924924	-0.221102	-0.666102	0.746805
-0.055675	-0.977567	-0.372455	-0.067461	-0.529503	-0.676145	-0.591658	-0.862008	-0.744694	-0.613038	-0.972832	-0.698888	-0.944796	-0.273252	-0.713859	0.762578
-0.061587	-0.949874	-0.401529	-0.083112	-0.623575	-0.811407	-0.668867	-0.956138	-0.911198	-0.844251	-1.213619	-0.914048	-0.726823	-0.037977	-0.546429	0.746446
-0.059564	-1.010278	-0.522858	-0.132227	-0.529503	-0.574238	-0.602436	-0.731777	-1.083519	-1.030789	-1.433388	-1.109069	-0.743638	-0.0701	-0.601025	0.746805
-0.016733	-0.74892	-0.1353	0.161093	-0.69133	-0.847508	-0.694617	-0.986274	-0.776038	-0.657407	-0.982019	-0.676436	-0.642763	0.077093	-0.487752	0.83342
0.022025	-0.578512	0.167641	0.386088	-0.581069	-0.659919	-0.60661	-0.765663	-0.872355	-0.767346	-1.090681	-0.784592	-0.777281	-0.107522	-0.656658	0.801584
-0.122293	-0.93806	-0.418043	-0.037039	-0.576515	-0.689423	-0.587493	-0.813901	-0.720003	-0.580225	-0.83618	-0.567909	-0.57062	0.138764	-0.446446	0.840885
-0.153544	-0.91064	-0.401529	-0.029756	-0.707341	-1.02747	-0.729202	-1.116126	-0.724463	-0.616601	-0.955571	-0.676976	-0.801555	-0.142735	-0.683271	0.793715
-0.16531	-1.057122	-0.53699	-0.128429	-0.641122	-0.835982	-0.648595	-0.924041	-0.728999	-0.631052	-0.897128	-0.590844	-0.786312	-0.061175	-0.68708	0.841278
-0.081172	-0.989332	-0.43478	-0.051862	-0.759849	-1.077884	-0.755285	-1.129384	-0.755526	-0.675522	-0.979541	-0.701556	-0.807644	-0.159557	-0.714735	0.856984
-0.12812	-1.003276	-0.457448	-0.063205	-0.733808	-0.976897	-0.731135	-1.085488	-0.815087	-0.753264	-1.043382	-0.809606	-0.586922	0.077093	-0.570059	0.904039
-0.089088	-0.703346	0.018787	0.26514	-0.617823	-0.714941	-0.6746	-0.901738	-0.678748	-0.612485	-0.858538	-0.700492	-0.539577	0.120652	-0.495868	0.958811
-0.133992	-0.893751	-0.229478	0.028685	-0.317101	-0.16132	-0.432198	-0.420912	-0.645152	-0.624673	-0.774199	-0.653691	-0.60705	0.054703	-0.643504	0.880524
-0.085213	-0.844782	-0.19633	0.064505	-0.490702	-0.53799	-0.555151	-0.773548	-0.598954	-0.597947	-0.735584	-0.568693	-0.667488	-0.052948	-0.682055	0.880524
-0.092865	-0.936144	-0.24428	0.009189	-0.40794	-0.475264	-0.488382	-0.731216	-0.735166	-0.789693	-0.954538	-0.764755	-0.33333	0.333662	-0.35469	0.896203
-0.016733	-0.775642	-0.002105	0.178132	-0.49886	-0.603905	-0.570093	-0.829825	-0.647192	-0.645826	-0.831851	-0.614534	-0.423686	0.240118	-0.436278	0.935353
-0.053653	-0.835868	-0.032962	0.147088	-0.214437	-0.08382	-0.349581	-0.376661	-0.635116	-0.697532	-0.797237	-0.568693	-0.62894	0.008152	-0.582948	0.840885
-0.061797	-0.737305	0.038393	0.158136	-0.249634	-0.222498	-0.394488	-0.496073	-0.376814	-0.273234	-0.354502	-0.242272	-0.61222	0.097618	-0.505165	0.864834
-0.126163	-0.902157	-0.166183	-0.003047	-0.25216	-0.259201	-0.399541	-0.556402	-0.730528	-0.8555	-0.97824	-0.720505	-0.621709	0.031897	-0.567886	0.809831
0.002857	-0.681445	0.192037	0.238201	-0.342481	-0.392629	-0.468761	-0.646432	-0.731375	-0.887827	-0.911249	-0.6955	-0.759111	-0.172817	-0.758117	0.746446
-0.067361	-0.864888	-0.120149	-0.006658	-0.378853	-0.529618	-0.493951	-0.772326	-0.78521	-0.92858	-1.015506	-0.763701	-0.563249	0.052368	-0.55056	0.809831
0.089481	-0.69126	0.236191	0.258299	-0.227112	-0.131694	-0.334728	-0.373143	-0.638081	-0.680693	-0.683104	-0.588013	-0.467785	0.146091	-0.437313	0.801962
0.067675	-0.80519	0.070432	0.08612	-0.346336	-0.34367	-0.413181	-0.608641	-0.684056	-0.72725	-0.742174	-0.632139	-0.842327	-0.217489	-0.747915	0.738914
0.045903	-0.985256	-0.125427	-0.067461	-0.504195	-0.716526	-0.550206	-0.898472	-0.830612	-0.97358	-1.069549	-0.895164	-0.739151	-0.08199	-0.601025	0.770461
0.020335	-1.018696	-0.232359	-0.162998	-0.815967	-1.307698	-0.78915	-1.43176	-1.114333	-1.390336	-1.497765	-1.283471	-0.707207	-0.079742	-0.689725	0.730667
-0.044315	-1.235839	-0.503302	-0.382956	-0.615048	-0.813469	-0.628831	-1.051755	-0.780586	-0.942751	-0.955571	-0.891761	-0.433537	0.174444	-0.417871	0.785844
0.035625	-1.168851	-0.386988	-0.311192	-0.370601	-0.246609	-0.440047	-0.619723	-0.929818	-1.113159	-1.159378	-1.062601	-1.037935	-0.467585	-0.965553	0.762578
0.101958	-0.946166	0.003302	-0.013944	-0.506234	-0.55485	-0.546862	-0.921997	-0.787235	-0.953049	-0.89412	-0.887959	-0.731434	-0.093069	-0.63945	0.817313
0.054613	-0.855372	-0.007136	0.011188	-0.197457	0.061837	-0.291455	-0.422062	-0.645152	-0.767706	-0.640795	-0.67523	-0.431023	0.189496	-0.406808	0.825173
-0.011146	-0.963039	-0.109665	-0.083112	-0.361872	-0.307137	-0.421119	-0.679294	-0.58751	-0.713139	-0.620994	-0.696756	-0.827591	-0.209144	-0.754787	0.825173
0.000329	-0.985035	-0.15531	-0.118152	-0.716485	-1.042144	-0.716572	-1.348677	-0.881923	-1.136678	-1.138711	-1.066211	-0.320933	0.333237	-0.333185	0.87268
-0.05024	-1.161957	-0.472376	-0.409427	-0.533025	-0.618583	-0.559507	-0.985789	-1.00585	-1.243659	-1.216435	-1.148999	-0.71768	-0.156994	-0.676579	0.83342
-0.001366	-1.134021	-0.418043	-0.341697	-0.50923	-0.614167	-0.562647	-0.965852	-0.616642	-0.673868	-0.564742	-0.652754	-0.604146	0.097618	-0.463913	0.888365
0.05139	-1.087448	-0.275421	-0.243	-0.446284	-0.506082	-0.523706	-0.862008	-0.779061	-0.855058	-0.784346	-0.805787	-0.475952	0.189496	-0.358762	0.817697
0.187919	-0.739541	0.198313	0.137754	-0.378853	-0.355353	-0.440047	-0.753993	-0.847737	-1.020906	-0.893321	-0.809186	-0.646427	0.028581	-0.507084	0.817697
-0.010793	-1.154908	-0.505806	-0.402831	-0.524123	-0.659919	-0.563467	-1.029084	-0.866464	-1.020906	-0.962786	-0.895628	-0.450859	0.183845	-0.365219	0.770093
0.059002	-0.974851	-0.257083	-0.204973	-0.476565	-0.633508	-0.542727	-0.952051	-0.688482	-0.792999	-0.643432	-0.676976	-0.312369	0.316983	-0.27383	0.794091
-0.073623	-1.28919	-0.66108	-0.549607	-0.526984	-0.777549	-0.566771	-1.073512	-0.860021	-0.997566	-0.822436	-0.914473	-0.613788	-0.066966	-0.55056	0.817697
-0.028972	-1.178078	-0.488979	-0.447856	-0.239781	-0.204374	-0.356345	-0.608589	-0.620781	-0.70276	-0.398352	-0.566616	-0.549337	0.011458	-0.557146	0.83342
-0.165287	-1.180499	-0.511465	-0.48658	-0.469111	-0.820186	-0.546862	-1.181043	-0.838183	-1.011603	-0.759975	-0.912822	-0.643489	-0.142193	-0.636965	0.849132
-0.044665	-0.826162	-0.012191	-0.049205	-0.431169	-0.718863	-0.518641	-1.055896	-0.769589	-0.873597	-0.658808	-0.74244	-0.382869	0.129243	-0.409842	0.841278
-0.18087	-1.222154	-0.715156	-0.561951	-0.388159	-0.518712	-0.444129	-0.858064	-0.839754	-0.858726	-0.74263	-0.784931	-0.405323	0.144317	-0.452858	0.77834
-0.04224	-0.856719	-0.160451	-0.075833	-0.418513	-0.435429	-0.460524	-0.751343	-1.166561	-1.331061	-1.279564	-1.09055	-0.81523	-0.229232	-0.748048	0.731021
-0.081077	-1.024568	-0.377998	-0.189563	-0.383226	-0.282894	-0.425184	-0.623476	-1.114333	-1.019263	-1.21938	-0.899121	-0.702633	0.005698	-0.615611	0.604345
-0.206247	-0.968562	-0.295605	-0.059402	-0.41231	-0.173929	-0.395488	-0.450926	-0.914409	-0.306976	-0.8665	-0.5273	-0.892866	-0.057435	-0.737739	0.372904
-0.510809	-0.438327	-0.454779	-0.121451	-0.440825	-0.179848	-0.415693	-0.239551	-1.027776	-0.233574	-1.107311	-0.550295	-0.442691	0.457108	-0.391303	0.27624
-0.494939	0.315112	-0.253694	0.082484	-0.753467	-0.584541	-0.632938	-0.571387	-1.105538	-0.17941	-1.196279	-0.530339	-0.520751	0.458346	-0.502707	0.244182
-0.523476	0.80942	-0.346857	0.044474	-0.796909	-0.523418	-0.64965	-0.450926	-0.918779	0.299208	-0.769602	-0.087906	-0.318584	0.815587	-0.26551	0.252249
-0.512707	1.243543	-0.078824	0.227878	-1.055618	-1.07087	-0.878087	-0.945747	-0.969687	0.332367	-0.78893	-0.154113	-0.235235	0.96926	-0.199458	0.292539
-0.472173	0.942675	0.049752	0.329039	-0.999178	-1.05846	-0.836115	-0.920475	-1.355419	-0.316145	-1.459407	-0.661913	-0.523135	0.618417	-0.481358	0.179385
-0.569619	0.720497	0.3627	0.55416	-0.876687	-0.851926	-0.756923	-0.666146	-1.139	-0.074572	-1.168221	-0.417957	-0.391271	0.779208	-0.362085	0.163202
-0.744388	0.319715	-0.007141	0.254848	-0.527007	-0.247607	-0.505597	-0.083621	-1.01732	-0.017725	-0.977125	-0.329193	-0.576313	0.536088	-0.570395	0.155106
-0.63173	0.498931	0.332112	0.530253	-0.723263	-0.618583	-0.654322	-0.499899	-0.918779	-0.037729	-0.939623	-0.285838	-0.346213	0.784482	-0.320546	0.300388
-0.562867	0.32426	0.210239	0.427024	-0.588295	-0.458013	-0.553665	-0.297775	-0.911198	-0.078057	-1.003718	-0.374298	-0.566207	0.473908	-0.543999	0.356854
-0.446059	0.287722	0.130986	0.34842	-0.742118	-0.747264	-0.655242	-0.567421	-0.965023	-0.243903	-1.118597	-0.442352	-0.578756	0.448848	-0.563651	0.476686
-0.438784	-0.023536	-0.222725	0.080728	-0.779344	-0.816258	-0.691492	-0.643761	-0.890985	-0.192993	-0.95289	-0.395248	-0.777243	0.181644	-0.717543	0.492644
-0.224065	0.393796	0.39793	0.566296	-0.718847	-0.807179	-0.609019	-0.608641	-0.833863	-0.255507	-0.985204	-0.39752	-0.653444	0.29899	-0.609028	0.58846
-0.371223	-0.034998	-0.284705	-0.006658	-0.571315	-0.45147	-0.484695	-0.348377	-0.722968	-0.152875	-0.841359	-0.329381	-0.591642	0.353968	-0.652016	0.532491
-0.230043	0.229536	0.130986	0.398871	-0.646467	-0.702657	-0.487272	-0.469641	-0.587494	-0.081563	-0.709544	-0.176466	-0.630618	0.331113	-0.609028	0.628152
-0.299913	-0.066165	-0.268539	0.050429	-0.710909	-0.734994	-0.516124	-0.470147	-0.625256	-0.124147	-0.76611	-0.308549	-0.642565	0.28874	-0.652016	0.572564
-0.233209	0.0146	-0.109565	0.158136	-0.810038	-0.782141	-0.545304	-0.5249	-0.50752	-0.00449	-0.593657	-0.176118	-0.513449	0.43038	-0.498447	0.643685
-0.261199	-0.085744	-0.202442	0.09333	-0.737024	-0.754928	-0.496139	-0.478044	-0.403739	0.051679	-0.483843	-0.065781	-0.5342	0.438078	-0.505165	0.746805
-0.156428	0.197124	0.217709	0.446319	-0.589073	-0.512375	-0.392998	-0.355942	-0.557183	-0.210706	-0.714893	-0.375281	-0.653444	0.261116	-0.676579	0.754693
-0.247803	0.130848	0.116819	0.366304	-0.310696	0.005615	-0.191034	0.106624	-0.440336	-0.1172	-0.506293	-0.2424	-0.542405	0.36553	-0.583747	0.770461
-0.209775	0.079314	0.09544	0.355912	-0.479049	-0.421532	-0.341467	-0.310639	-0.252514	0.091812	-0.211261	-0.043635	-0.45378	0.479454	-0.478756	0.817313
-0.244028	-0.051448	-0.099278	0.157623	-0.513656	-0.440063	-0.379526	-0.38257	-0.585474	-0.489861	-0.792194	-0.529337	-0.453286	0.442779	-0.483197	0.841278
-0.219382	0.054102	-0.033208	0.20486	-0.71534	-0.882699	-0.553114	-0.728582	-0.484235	-0.369238	-0.690581	-0.50624	-0.642632	0.175854	-0.707125	0.809831
-0.230648	0.098883	0.121131	0.295438	-0.463948	-0.380028	-0.396016	-0.36745	-0.479784	-0.328263	-0.579046	-0.439267	-0.731622	0.040335	-0.805874	0.794091
-0.251944	0.145031	0.089534	0.308707	-0.52137	-0.504708	-0.425134	-0.39507	-0.631391	-0.586559	-0.788869	-0.657407	-0.865619	-0.143081	-0.969785	0.794091
-0.290035	0.118462	0.064769	0.292069	-0.515162	-0.544505	-0.417732	-0.478044	-0.558707	-0.497014	-0.755336	-0.614853	-0.644033	0.15242	-0.744489	0.82556
-0.267029	0.053032	-0.012191	0.23823	-0.443132	-0.326019	-0.355179	-0.203163	-0.530777	-0.392588	-0.673677	-0.569368	-0.902083	-0.135423	-1.038739	0.786217
-0.248186	-0.024377	-0.109565	0.14463	-0.692452	-0.818315	-0.534477	-0.619172	-0.436048	-0.23522	-0.528771	-0.438756	-0.323758	0.516211	-0.406808	0.87268
-0.142456	-0.026975	-0.05834	0.19388	-0.535122	-0.41635	-0.387758	-0.279691	-0.650297	-0.538086	-0.838434	-0.700838	-0.802246	0.034303	-0.846676	0.83342
-0.074373	0.236163	0.290077	0.457322	-0.344905	-0.022395	-0.189364	0.093357	-0.579216	-0.444481	-0.762013	-0.636982	-0.349027	0.527968	-0.416188	0.935353
-0.188964	-0.052407	-0.068522	0.173998	-0.460203	-0.319726	-0.272247	-0.119021	-0.685342	-0.655715	-1.014112	-0.793516	-0.741035	0.048724	-0.799015	0.848737
-0.12389	0.098324	0.162691	0.362934	-0.239513	0.166013	-0.115973	0.234275	-0.377708	-0.231761	-0.506295	-0.438603	-0.537597	0.278151	-0.582948	0.927106
-0.280425	-0.293395	-0.320075	-0.044255	-0.478055	-0.302119	-0.310481	-0.160683	-0.245833	0.005422	-0.207655	-0.219983	-0.207904	0.607854	-0.284088	0.927529
-0.122419	0.019943	0.080425	0.278387	-0.422963	-0.142921	-0.221814	0.011871	-0.685342	-0.681991	-0.982018	-0.815331	-0.630618	0.140341	-0.636965	0.856586
-0.109134	-0.032838	0.080425	0.278387	-0.285763	-0.005464	-0.133768	0.139864	-0.288001	-0.027637	-0.347879	-0.264129	-0.492838	0.257345	-0.511575	0.785844
-0.04781	0.170934	0.367426	0.53854	-0.432611	-0.373365	-0.249338	-0.186511	-0.286213	-0.026019	-0.260953	-0.263931	0.066295	0.829103	0.009617	0.786217
-0.184191	-0.252326	-0.236888	0.037148	-0.746128	-0.883573	-0.456972	-0.637519	-0.319046	-0.043004	-0.278445	-0.285902	0.231554	0.882221	0.075702	0.699077
-0.060232	0.096886	0.319119	0.509135	-0.693877	-0.646623	-0.412055	-0.413033	-0.635116	-0.475512	-0.811236	-0.655345	-0.142047	0.469348	-0.261188	0.508866
-0.162013	-0.248896	-0.199896	0.099213	-0.771205	-0.680205	-0.443587	-0.379155	-0.503265	-0.191925	-0.64327	-0.504324	-0.332152	0.29899	-0.369922	0.412979
-0.082792	-0.077074	0.054751	0.30442	-0.859724	-0.962964	-0.533237	-0.643335	-0.422304	-0.021544	-0.502549	-0.351139	-0.315167	0.321362	-0.290329	0.372678
-0.101743	-0.204255	-0.245998	0.079704	-0.779167	-0.789059	-0.441053	-0.582448	-0.402313	0.031824	-0.581627	-0.221434	-0.176165	0.422436	-0.267496	-0.097276
0.032236	0.155295	0.188474	0.447521	-0.655382	-0.501705	-0.344313	-0.317854	-0.297689	0.214456	-0.424159	-0.065803	-0.332441	0.090055	-0.437313	-0.585906
-0.009918	0.126612	-0.001907	0.349246	-0.581812	-0.192675	-0.231652	-0.067313	-0.221603	0.291315	-0.356515	0.067817	-0.347104	0.151814	-0.481031	-0.804664
-0.008293	0.140565	0.049627	0.362934	-0.54493	-0.210287	-0.20025	0.032883	-0.196351	0.282973	-0.359928	0.089947	-0.695437	-0.205172	-0.795768	-0.830043
-0.107281	0.018892	0.003302	0.27142	-0.48182	-0.234751	-0.151543	0.019726	-0.120265	0.389369	-0.25953	0.157014	-0.807727	-0.283826	-0.853567	-0.779313
-0.047753	0.353642	0.428394	0.578108	-0.40703	-0.131694	-0.102157	0.059732	-0.224163	0.241084	-0.350905	0.090241	-0.765858	-0.183446	-0.823616	-0.855225
-0.117351	0.047229	0.111181	0.23823	-0.360428	-0.181144	-0.04556	0.083162	-0.207668	0.181495	-0.342989	0.112688	-0.746384	-0.126343	-0.778756	-0.872174
-0.026761	0.248096	0.395303	0.428845	-0.226311	0.04311	0.044173	0.221163	-0.206378	0.131483	-0.418372	0.112688	-0.570628	-0.016695	-0.72147	-0.982925
-0.041814	0.220036	0.466168	0.466939	-0.455989	-0.493061	-0.116819	-0.192321	-0.375735	-0.145483	-0.700462	-0.046116	-0.400476	0.241193	-0.482606	-0.965619
-0.127051	0.072817	0.116168	0.161093	-0.377256	-0.409393	-0.048561	-0.070039	-0.348002	-0.094173	-0.599959	0.022512	-0.381256	0.287645	-0.4045	-0.880888
-0.138495	0.159384	0.235179	0.231349	-0.418819	-0.505077	-0.113867	-0.229041	-0.154174	0.201751	-0.269283	0.293238	-0.359996	0.199692	-0.524238	-1.059456
-0.141917	0.05426	0.054081	0.137754	-0.436035	-0.578175	-0.144657	-0.273191	-0.191156	0.15164	-0.317472	0.270608	-0.385181	0.181644	-0.510577	-1.240071
-0.083021	0.018892	0.059745	0.123752	-0.305594	-0.230529	-0.057623	-0.047046	-0.168192	0.104914	-0.31258	0.361095	-0.204628	0.372979	-0.250174	-1.404469
-0.260892	-0.012193	0.182348	0.26514	-0.579712	-0.777986	-0.299835	-0.560054	-0.384702	-0.054955	-0.57971	0.20275	-0.201541	0.405148	-0.303273	-1.622637
-0.670076	0.535104	0.074745	0.150621	-0.683193	-0.83249	-0.418389	-0.496158	-0.513312	0.17199	-0.662295	0.134953	-0.410323	0.297037	-0.503786	-1.684653
-0.714986	0.938733	0.325299	0.349318	-0.54209	-0.469229	-0.304341	-0.119734	-0.325277	0.580421	-0.25953	0.404505	-0.607219	0.072831	-0.778756	-1.649493
-0.852851	1.556013	0.232015	0.211341	-0.728348	-0.774102	-0.469432	-0.431957	-0.556977	0.421115	-0.538777	0.135128	-0.198803	0.447239	-0.557146	-1.631408
-1.020856	1.949142	0.121131	0.143535	-0.785058	-0.910015	-0.528287	-0.529871	-0.473487	0.517589	-0.366943	0.291754	-0.084698	0.464549	-0.533556	-1.552592
-1.070901	1.874938	-0.002786	0.080728	-0.693044	-0.582145	-0.464429	-0.254437	-0.761888	-0.111699	-0.905242	-0.133442	-0.463482	0.031897	-0.870688	-1.500202
-0.935305	1.2148	-0.416077	-0.189563	-0.660759	-0.487116	-0.484254	-0.268	-0.450759	0.303544	-0.30519	0.335848	-0.307058	0.189496	-0.735824	-1.482765
-0.625707	1.48624	0.124839	0.302114	-0.623421	-0.469531	-0.447035	-0.254437	-0.396917	0.279964	-0.217657	0.426279	-0.428658	0.069532	-0.823623	-1.474052
-0.639537	1.045303	-0.436051	-0.189563	-0.893071	-1.071973	-0.648648	-0.743453	-0.388519	0.204957	-0.24763	0.451077	-0.439273	0.086462	-0.827527	-1.335512
-0.437696	1.209734	-0.226297	0.004112	-0.884594	-1.02747	-0.644452	-0.655856	-0.399487	0.128497	-0.327369	0.452688	-0.38566	0.23377	-0.784666	-1.180156
-0.389994	0.995414	-0.416077	-0.059402	-0.878156	-0.978871	-0.630436	-0.66216	-0.431562	0.07031	-0.454943	0.407849	-0.397161	0.223848	-0.759184	-0.999977
-0.198531	1.167757	-0.200989	0.134284	-0.828747	-0.813469	-0.551344	-0.424275	-0.399487	0.071553	-0.415812	0.452826	-0.281275	0.379733	-0.65196	-1.008507
-0.251146	0.743512	-0.775967	-0.339062	-0.813736	-0.69613	-0.554418	-0.344602	-0.44117	0.028609	-0.459112	0.382781	-0.275526	0.468334	-0.530954	-1.025578
0.001096	0.983838	-0.461431	0.021266	-0.957681	-1.013356	-0.614736	-0.4928	-0.417072	0.158632	-0.425881	0.452688	-0.36031	0.400715	-0.522556	-0.999977
-0.098774	0.764532	-0.816568	-0.336971	-0.997085	-1.012961	-0.607324	-0.490054	-0.565643	-0.074572	-0.606365	0.248065	-0.568507	0.193778	-0.782003	-1.08543
0.026979	0.937068	-0.591304	-0.132227	-1.07231	-1.144757	-0.649168	-0.523064	-0.49877	0.014588	-0.5621	0.316321	-0.218661	0.579918	-0.43292	-1.034119
-0.055524	0.873398	-0.7174	-0.213182	-1.075438	-1.158117	-0.636544	-0.590821	-0.465209	0.003997	-0.583412	0.339149	-0.269815	0.548519	-0.515841	-0.830043
0.090283	1.160965	-0.342852	0.09333	-0.964512	-1.04177	-0.611478	-0.531281	-0.434564	0.07031	-0.480853	0.362029	-0.267458	0.512185	-0.487752	-0.519023
0.124146	1.119298	-0.359802	0.040731	-0.861391	-0.751272	-0.523226	-0.303326	-0.526847	-0.106688	-0.609272	0.225366	-0.366109	0.388329	-0.604967	-0.352684
0.143538	1.091185	-0.423884	0.009189	-0.963317	-0.977508	-0.62053	-0.496736	-0.552663	-0.157706	-0.629833	0.090127	-0.455492	0.309612	-0.634811	-0.28648
0.09264	1.105297	-0.452452	0.006167	-0.819143	-0.725561	-0.512932	-0.256719	-0.443237	0.018076	-0.464018	0.27071	-0.309612	0.510624	-0.511702	-0.15473
0.171501	1.201287	-0.358567	0.109413	-0.733011	-0.600717	-0.460524	-0.137515	-0.346598	0.151918	-0.370346	0.406748	-0.561229	0.24384	-0.727403	-0.121866
0.199523	1.214646	-0.363853	0.159737	-0.820154	-0.564321	-0.467215	-0.087317	-0.191156	0.403599	-0.062199	0.633829	-0.421373	0.443856	-0.552092	-0.220497
0.225878	1.201885	-0.350533	0.164836	-0.81468	-0.478311	-0.469802	0.028111	-0.525309	-0.106688	-0.678418	0.134643	-0.837666	0.032188	-0.859029	-0.31127
0.422248	1.594489	0.130986	0.597653	-0.60556	0.002689	-0.301039	0.434606	-0.309837	0.286263	-0.264406	0.497761	-0.434553	0.514879	-0.411137	-0.212276
0.353201	1.361113	-0.099718	0.402873	-0.611144	0.004236	-0.292717	0.439347	-0.252514	0.33363	-0.220947	0.543787	-0.332441	0.67094	-0.241549	-0.146521
0.433651	1.596964	0.145596	0.631404	-0.72947	-0.29114	-0.378065	0.203877	-0.160725	0.43212	-0.110822	0.681945	-0.164433	0.855131	-0.157269	-0.08096
0.366252	1.260732	-0.221837	0.311561	-0.568226	-0.039706	-0.260611	0.413759	-0.096665	0.613789	0.01766	0.70272	-0.212939	0.827955	-0.101993	-0.040081
0.454967	1.17725	-0.298248	0.19934	-0.563022	0.030931	-0.243647	0.489164	0.005318	0.818393	0.253972	0.837076	-0.075542	0.969618	-0.025062	-0.138316
0.195171	0.707316	-0.785384	-0.210614	-0.747294	-0.386307	-0.42784	0.099809	-0.210274	0.502272	-0.066826	0.56515	-0.25577	0.79527	-0.165722	-0.130069
0.333783	1.038519	-0.206233	0.264368	-0.819143	-0.484842	-0.457536	0.031709	-0.326146	0.435367	-0.195927	0.361095	-0.161557	0.838583	-0.116721	-0.130113
0.192404	0.700684	-0.678212	-0.125473	-0.910456	-0.702883	-0.528813	-0.191354	-0.226756	0.598482	-0.066826	0.496912	-0.063986	0.936741	-0.018515	-0.146483
0.324815	1.214528	-0.089142	0.352699	-0.69397	-0.362526	-0.408961	0.119875	-0.053391	0.838674	0.162985	0.725611	-0.150129	0.871364	-0.066067	-0.187595
0.402297	1.067252	-0.298248	0.145133	-0.654671	-0.319142	-0.358116	0.093357	-0.308454	0.460064	-0.294232	0.384689	-0.431712	0.535368	-0.328726	-0.286493
0.663875	1.392691	-0.023328	0.50177	-0.62609	-0.18581	-0.319067	0.137031	-0.27354	0.553396	-0.172357	0.473751	-0.61986	0.372128	-0.528029	-0.319564
0.649641	1.225981	-0.323682	0.287944	-0.587838	-0.022395	-0.292495	0.31821	-0.096604	0.810001	0.112757	0.744396	-0.272874	0.79449	-0.118744	-0.278233
0.803164	1.459817	-0.068687	0.491907	-0.633631	-0.143415	-0.303247	0.207386	-0.235578	0.65608	-0.103935	0.519644	-0.534534	0.477769	-0.33562	-0.286493
0.748032	1.24767	-0.383893	0.210202	-0.837584	-0.53799	-0.426535	-0.184794	-0.429072	0.310184	-0.443509	0.27071	-0.788545	0.234483	-0.51387	-0.261722
0.763116	1.296668	-0.389197	0.210202	-0.764122	-0.441878	-0.391574	-0.2225	-0.388519	0.374564	-0.330234	0.361216	-0.647112	0.43553	-0.409097	-0.187572
0.769447	1.159186	-0.481338	0.121764	-0.604076	-0.162218	-0.262141	-0.013576	-0.581576	0.046976	-0.609621	0.067125	-1.080922	-0.112587	-0.881444	-0.171127
0.729073	1.176163	-0.44287	0.134284	-0.608352	-0.053143	-0.302188	-0.066694	-0.474821	0.131864	-0.436251	0.20255	-0.591642	0.450655	-0.444072	-0.031914
0.633529	1.081184	-0.514068	0.043266	-0.832294	-0.518712	-0.457422	-0.477261	-0.559832	0.007548	-0.589426	0.067421	-0.388861	0.599916	-0.323251	0.049591
0.584312	1.032042	-0.598467	0.004112	-0.878156	-0.640043	-0.512277	-0.559925	-0.373058	0.318023	-0.237441	0.314037	-0.352007	0.686774	-0.316565	0.090232
0.511679	0.99208	-0.636171	-0.044407	-1.040672	-0.919602	-0.618154	-0.868173	-0.420976	0.239058	-0.325362	0.31569	-0.455862	0.569768	-0.463591	0.187632
0.488607	0.990435	-0.598467	-0.018988	-0.928525	-0.725561	-0.545807	-0.642553	-0.242381	0.392196	-0.057287	0.586062	-0.286867	0.70353	-0.373744	0.244182
0.476244	0.896828	-0.650373	-0.094189	-0.925117	-0.659919	-0.506991	-0.59386	-0.379357	0.201751	-0.265266	0.428805	-0.386471	0.718422	-0.486383	0.268185
0.491847	0.970133	-0.543144	0.034329	-1.050549	-0.842645	-0.587133	-0.780039	-0.399497	0.125012	-0.315728	0.360827	-0.394685	0.669773	-0.514412	0.300388
0.53452	1.112493	-0.352569	0.187922	-1.008127	-0.71546	-0.5323	-0.686728	-0.423641	0.061838	-0.294918	0.406748	-0.230376	0.81723	-0.395766	0.372678
0.445984	0.889681	-0.589405	-0.029756	-1.100918	-0.849353	-0.628847	-0.891983	-0.559832	-0.180652	-0.481286	0.225435	-0.309612	0.751299	-0.446129	0.412979
0.43142	0.835435	-0.594774	-0.083112	-1.014825	-0.856106	-0.583502	-0.865974	-0.462748	-0.083903	-0.327793	0.29316	-0.435424	0.565129	-0.665694	0.452727
0.380607	0.714137	-0.705997	-0.250307	-1.191234	-1.277903	-0.700452	-1.271328	-0.581576	-0.380835	-0.559479	0.022284	-0.264142	0.67094	-0.557146	0.580514
0.329983	0.734325	-0.69193	-0.25414	-0.924064	-0.822788	-0.521766	-0.971782	-0.549693	-0.414467	-0.557685	-0.000668	-0.227181	0.626968	-0.587693	0.619904
0.263509	0.673307	-0.670005	-0.265447	-0.945339	-0.865103	-0.529889	-1.049131	-0.452178	-0.29481	-0.390614	0.180198	-0.306735	0.53038	-0.730964	0.644008
0.35773	0.868091	-0.560674	-0.113452	-1.007004	-1.04327	-0.579421	-1.233104	-0.51626	-0.31281	-0.553417	0.066609	-0.212939	0.702601	-0.631697	0.611972
0.401245	0.828843	-0.717043	-0.200903	-0.910456	-0.790956	-0.481696	-0.943942	-0.330408	-0.011216	-0.219413	0.383311	-0.486541	0.369437	-0.83663	0.604036
0.542281	1.038519	-0.418616	0.016478	-0.926215	-0.96365	-0.473559	-1.039461	-0.314057	0.035119	-0.261982	0.361216	-0.395342	0.543862	-0.679582	0.659854
0.447648	0.8628	-0.470503	-0.048124	-0.869854	-0.905704	-0.446756	-0.969894	-0.271019	0.021548	-0.157001	0.428616	-0.443468	0.447387	-0.737713	0.699077
0.302631	0.902033	-0.297433	0.043266	-0.804875	-0.845404	-0.429147	-1.088587	-0.396694	-0.189512	-0.324729	0.339008	-0.215795	0.588431	-0.611611	0.699077
0.238646	0.868793	-0.318385	0.039653	-0.659632	-0.624805	-0.320226	-0.918989	-0.335671	-0.175789	-0.266362	0.36153	-0.318821	0.495556	-0.703501	0.723125
0.216562	0.787408	-0.368125	-0.056444	-0.769443	-0.835982	-0.460163	-1.203329	-0.344172	-0.279717	-0.292495	0.33762	-0.557874	0.155628	-0.983932	0.691172
0.256532	0.8616	-0.277273	0.02009	-0.696888	-0.725697	-0.40633	-1.145602	-0.407434	-0.312479	-0.304704	0.292978	-0.415374	0.345513	-0.856748	0.770461
0.272229	0.88101	-0.231369	0.057509	-0.806725	-0.936476	-0.495065	-1.318807	-0.41567	-0.336672	-0.299337	0.338952	-0.275526	0.449652	-0.727984	0.801584
0.3283	0.970133	-0.058314	0.258299	-0.729725	-0.819749	-0.419803	-1.231688	-0.400895	-0.377197	-0.307066	0.339096	-0.292496	0.419006	-0.731845	0.825173
0.301693	1.130174	0.139228	0.409792	-0.576355	-0.457285	-0.327016	-0.955239	-0.345203	-0.222887	-0.186957	0.453292	0.114246	0.891998	-0.35469	0.888365
0.333097	1.019788	-0.150456	0.267904	-0.579712	-0.522821	-0.347367	-0.973347	-0.459332	-0.361857	-0.404166	0.270781	-0.010654	0.752097	-0.430807	0.746446
0.557804	1.319998	0.113721	0.541704	-0.592122	-0.34394	-0.303247	-0.849081	-0.427702	-0.231761	-0.29193	0.361095	-0.047084	0.778516	-0.369396	0.540452
0.561764	1.200579	-0.216612	0.349246	-0.675756	-0.45147	-0.370068	-0.900847	-0.53535	-0.273882	-0.398286	0.247568	-0.118571	0.689603	-0.416543	0.428742
0.640534	1.219458	-0.115025	0.399992	-0.706411	-0.488883	-0.402226	-0.931938	-0.433262	-0.100199	-0.288674	0.359218	-0.003783	0.898226	-0.250174	0.452727
0.585626	0.952936	-0.418616	0.16691	-0.586837	-0.252892	-0.299514	-0.743453	-0.386921	-0.052103	-0.226227	0.424172	-0.061185	0.785622	-0.402154	0.420741
0.5624	1.019788	-0.337167	0.224935	-0.725003	-0.673397	-0.413181	-1.133231	-0.227035	0.051048	-0.066251	0.585724	-0.029881	0.827415	-0.386959	0.596404
0.465762	0.898109	-0.443834	0.13996	-0.692521	-0.607809	-0.38337	-1.057174	-0.424986	-0.251121	-0.335144	0.338065	-0.259115	0.526113	-0.672572	0.643685
0.503776	0.932178	-0.397779	0.150621	-0.836034	-0.840609	-0.433335	-1.219669	-0.457337	-0.357742	-0.383628	0.202215	-0.208071	0.480872	-0.648509	0.723125
0.457068	0.829756	-0.533889	0.039653	-0.686724	-0.435429	-0.284651	-0.869961	-0.133452	0.075533	0.102148	0.539415	0.14715	0.853843	-0.27239	0.754331
0.489179	0.671358	-0.800573	-0.220193	-0.823616	-0.754928	-0.360391	-1.155223	-0.524979	-0.556973	-0.574461	-0.021956	-0.150853	0.550585	-0.416543	0.651933
0.535896	0.758529	-0.647159	-0.074744	-0.589339	-0.282894	-0.184848	-0.772326	-0.096604	0.101732	0.14191	0.538369	-0.089837	0.646718	-0.267897	0.635761
0.493634	0.855077	-0.515648	0.06021	-0.527508	-0.14934	-0.153365	-0.683384	-0.492916	-0.52689	-0.555025	-0.044867	-0.334769	0.378261	-0.520655	0.580213
0.566328	1.084474	-0.251587	0.27142	-0.417987	0.011093	-0.070657	-0.545566	-0.231868	-0.123155	-0.117062	0.246543	-0.138975	0.574595	-0.336701	0.611972
0.536465	0.959133	-0.338491	0.195676	-0.509422	-0.108758	-0.150362	-0.683001	-0.296381	-0.247702	-0.254003	0.157588	-0.061145	0.609761	-0.320926	0.683264
0.564026	0.987501	-0.322229	0.224385	-0.522693	-0.1011	-0.170054	-0.65341	-0.075348	0.04634	0.122038	0.402662	-0.19081	0.411479	-0.486383	0.722774
0.452663	0.661261	-0.736585	-0.178392	-0.696888	-0.499832	-0.299835	-0.987727	-0.330408	-0.361137	-0.217043	0.112526	-0.481656	0.101708	-0.782631	0.770461
0.462772	0.70761	-0.683445	-0.136468	-0.639126	-0.391527	-0.231032	-0.862008	-0.468292	-0.612485	-0.466215	-0.088817	-0.52364	0.093765	-0.768665	0.786217
0.436823	0.746621	-0.675057	-0.094419	-0.644166	-0.373794	-0.240122	-0.829825	-0.703789	-0.975837	-0.865247	-0.380233	-0.718022	-0.106665	-0.909648	0.723125
0.483496	1.069987	-0.403903	0.175889	-0.539482	-0.179848	-0.177975	-0.664914	-0.573097	-0.802608	-0.659575	-0.157338	-0.543926	0.108046	-0.707364	0.675354
0.471578	1.069543	-0.474339	0.17953	-0.434961	0.129394	-0.071515	-0.33465	-0.312755	-0.315875	-0.148606	0.224543	0.139906	0.855131	-0.107068	0.770461
0.54042	1.139485	-0.342852	0.230096	-0.869854	-0.775269	-0.422538	-1.155109	-0.626777	-0.846548	-0.70148	-0.245716	-0.066835	0.592305	-0.347577	0.722774
0.578779	1.103305	-0.358567	0.250007	-0.797814	-0.669573	-0.384697	-1.081195	-0.49004	-0.597611	-0.499387	-0.111136	-0.029472	0.594188	-0.28353	0.825173
0.560107	1.266385	-0.170649	0.3764	-0.647204	-0.523418	-0.32142	-1.038271	-0.639581	-0.848889	-0.664958	-0.333032	-0.31755	0.261433	-0.624429	0.83303
0.473361	1.18085	-0.262297	0.30442	-0.63609	-0.476237	-0.283422	-0.972701	-0.664518	-0.916168	-0.792194	-0.378514	-0.256802	0.33355	-0.566447	0.927529
0.581983	1.492242	0.225227	0.661867	-0.461103	-0.18581	-0.16025	-0.654253	-0.49004	-0.638399	-0.453687	-0.133155	0.069116	0.625327	-0.367175	0.981802
0.418743	0.926899	-0.526507	0.056422	-0.65092	-0.600717	-0.341467	-1.120639	-0.511852	-0.77914	-0.537362	-0.133598	0.097794	0.609761	-0.419813	1.036364
0.625695	1.450246	0.088232	0.549628	-0.578066	-0.518712	-0.310344	-1.037616	-0.441782	-0.690782	-0.454943	0.022402	0.070778	0.595608	-0.452858	1.106321
0.585626	1.095168	-0.282481	0.253629	-0.628738	-0.603905	-0.329269	-1.129006	-0.614021	-0.928214	-0.747108	-0.202648	0.10892	0.681134	-0.389267	1.036364
0.597476	1.322928	-0.008681	0.440884	-0.541168	-0.495272	-0.234466	-0.945747	-0.675547	-1.05241	-0.885379	-0.249072	0.066263	0.668143	-0.4045	0.950564
0.417104	0.931832	-0.577033	0.056422	-0.508567	-0.448372	-0.170436	-0.861888	-0.626777	-0.894323	-0.759819	-0.134935	0.223874	0.858318	-0.261271	0.911454
0.559046	1.238077	-0.145323	0.468039	-0.492237	-0.314943	-0.175642	-0.7775	-0.400895	-0.560456	-0.423898	0.225439	0.239723	0.903816	-0.294691	0.950994
0.54756	1.187536	-0.145262	0.437318	-0.385845	0.070265	-0.052509	-0.474084	-0.338352	-0.441277	-0.29441	0.338435	0.138092	0.788816	-0.367175	0.927106
0.655373	1.308706	-0.028257	0.539765	-0.40408	0.02311	-0.05553	-0.460998	-0.279989	-0.392588	-0.238706	0.383624	0.237911	0.897371	-0.27239	0.903624
0.738002	1.335978	-0.01727	0.570928	-0.45952	0.004699	-0.056609	-0.473494	-0.376335	-0.46738	-0.307174	0.270471	-0.089995	0.607764	-0.476885	0.958377
0.805061	1.730404	0.339314	0.871809	-0.445178	-0.130755	-0.068363	-0.600815	-0.422765	-0.54186	-0.385752	0.20278	0.077948	0.76003	-0.376052	0.927529
0.603072	1.292375	-0.227086	0.430256	-0.479049	-0.173473	-0.05745	-0.627444	-0.409528	-0.617475	-0.430062	0.248056	-0.078338	0.625327	-0.500981	0.927106
0.667907	1.4652	-0.018423	0.6282	-0.344516	0.089754	-0.013766	-0.467373	-0.210274	-0.298369	-0.041637	0.520336	0.430062	1.117443	-0.063687	0.943175
0.621766	1.414661	-0.09412	0.577737	-0.389493	-0.041823	-0.054593	-0.560537	-0.238841	-0.410683	-0.207651	0.407582	0.094358	0.762537	-0.34303	0.927529
0.690695	1.500987	0.053083	0.682863	-0.420039	-0.124738	-0.086198	-0.596688	-0.224163	-0.340209	-0.065456	0.450858	0.0286	0.668143	-0.413703	0.864433
0.648031	1.199023	-0.262297	0.389715	-0.552996	-0.408098	-0.184987	-0.777277	-0.536712	-0.858553	-0.606536	0.000153	-0.02122	0.565791	-0.423385	0.856984
0.794798	1.594365	0.148707	0.74691	-0.399707	-0.246675	-0.123979	-0.719965	-0.485736	-0.744436	-0.516469	0.112365	0.075108	0.726763	-0.287934	0.880118
0.681591	1.514626	0.039097	0.690939	-0.276736	-0.120142	-0.029797	-0.59888	-0.458261	-0.72888	-0.555788	0.111342	-0.113788	0.535368	-0.434038	0.872277
0.73241	1.666579	0.199702	0.831996	-0.311008	-0.197864	-0.083255	-0.666688	-0.179925	-0.327584	-0.127832	0.475644	0.284897	0.996878	-0.121494	0.927529
0.68961	1.298127	-0.231667	0.44775	-0.341434	-0.265461	-0.118222	-0.719345	-0.151612	-0.305548	-0.061978	0.542389	0.364444	1.06846	-0.110133	0.927529
0.666805	1.371622	-0.059423	0.525678	-0.339254	-0.287235	-0.08895	-0.710603	-0.102392	-0.221503	0.011226	0.539415	0.09843	0.754189	-0.329963	0.935353
0.671735	1.303573	-0.078824	0.574343	-0.197977	-0.118456	0.005159	-0.562728	-0.147833	-0.291271	-0.083312	0.49619	0.126956	0.79449	-0.290085	0.966188
0.762262	1.484899	0.177469	0.752409	-0.125742	-0.1123	0.042087	-0.554161	-0.174626	-0.421926	-0.202334	0.42948	0.260938	0.898226	-0.248097	0.966188
0.800177	1.593432	0.240096	0.828704	-0.011092	0.064522	0.127781	-0.506378	-0.24162	-0.527991	-0.347038	0.316344	0.329633	0.920421	-0.22206	0.997405
0.857627	1.70328	0.292653	0.856404	-0.108543	-0.076288	0.080785	-0.578296	-0.115845	-0.335522	-0.056256	0.520336	0.328085	0.914965	-0.244739	1.044611
0.819172	1.600896	0.111181	0.721695	-0.028544	0.224101	0.177733	-0.333088	-0.278576	-0.568863	-0.369331	0.225366	0.310689	0.893183	-0.268868	1.060176
0.849635	1.674238	0.236738	0.85938	-0.121231	0.039308	0.087811	-0.498171	-0.271632	-0.545654	-0.271344	0.315967	0.193849	0.82179	-0.301211	1.029036
0.7448	1.534625	0.0239	0.660141	-0.129875	0.089754	0.090008	-0.434129	-0.18729	-0.392588	-0.152231	0.360364	0.025616	0.677878	-0.437946	0.966188
0.802473	1.710587	0.201634	0.79244	-0.138935	0.12836	0.11017	-0.37811	-0.128725	-0.254559	-0.000188	0.495669	0.352366	1.018843	-0.114968	0.950564
0.784451	1.563325	-0.037808	0.697452	-0.070524	0.16356	0.15996	-0.349362	-0.233385	-0.414467	-0.215152	0.384032	0.326957	1.029831	-0.131393	0.966624
0.840485	1.607237	0.023493	0.670005	-0.138297	-0.020671	0.090896	-0.475495	-0.206378	-0.369984	-0.235757	0.337925	0.156888	0.79742	-0.319074	0.887956
0.8387	1.547134	0.013649	0.681013	-0.209919	-0.143415	0.004139	-0.645741	-0.31123	-0.523251	-0.317508	0.29337	0.368702	1.068435	-0.150761	0.958377
0.827803	1.592085	0.090459	0.721695	-0.240451	-0.14907	-0.012778	-0.679529	-0.324769	-0.560456	-0.29678	0.225258	0.244233	0.936248	-0.254671	0.990049
0.879102	1.665683	0.233785	0.810591	-0.28292	-0.259155	-0.045656	-0.759594	-0.535216	-0.872444	-0.65408	-0.066852	0.220421	0.925631	-0.277001	1.051929
0.790336	1.412201	-0.114895	0.512534	-0.368471	-0.511422	-0.10966	-0.941946	-0.490291	-0.774612	-0.654969	-0.045911	-0.14029	0.529331	-0.527947	1.005202
0.755165	1.457809	-0.221837	0.471615	-0.449036	-0.700906	-0.194462	-1.142286	-0.719964	-1.069502	-1.017956	-0.383895	-0.06312	0.59617	-0.510226	0.942747
0.813362	1.508349	-0.09412	0.577737	-0.078933	0.101293	0.087811	-0.364229	-0.377708	-0.5232	-0.426035	0.112688	-0.024229	0.687505	-0.482606	0.950564
0.954268	1.663327	0.162691	0.797906	-0.400801	-0.484842	-0.14411	-0.937347	-0.324769	-0.380835	-0.347616	0.202713	0.173619	0.870842	-0.270497	1.020789
0.962249	1.662266	0.230239	0.788171	-0.261483	-0.075492	-0.004786	-0.585302	-0.569619	-0.768968	-0.835401	-0.18267	0.028265	0.709004	-0.427233	0.966188
1.001419	1.863016	0.27081	0.88082	-0.227745	-0.075492	0.017137	-0.504634	-0.320689	-0.291271	-0.301907	0.202613	0.203496	0.98003	-0.17512	1.012997
0.858979	1.434826	-0.110311	0.494815	-0.357131	-0.508884	-0.136922	-0.800887	-0.507811	-0.580756	-0.66069	-0.046329	0.007756	0.801325	-0.319074	0.864433
1.077975	1.168708	0.40495	0.9393	0.027305	0.288957	0.134001	-0.192223	-0.30033	-0.369984	-0.263871	0.224967	-0.003739	0.791535	-0.203555	0.903624
1.196946	0.668865	0.189361	0.815852	0.091101	0.328189	0.136395	-0.125669	-0.399487	-0.552975	-0.398329	0.04543	0.036856	0.784128	-0.040355	1.012997
1.353777	0.434452	0.261037	0.88082	-0.075088	0.103193	0.00318	-0.351037	-0.260962	-0.27732	-0.098768	0.247121	0.257012	1.072259	0.259708	0.989605
1.17706	0.465354	0.121131	0.810591	-0.28292	-0.265461	-0.148661	-0.616486	-0.552663	-0.620284	-0.553417	-0.133763	0.102598	0.996678	0.167819	0.903624
1.275518	0.859781	0.039097	0.749206	-0.296108	-0.21741	-0.182505	-0.444981	-0.699107	-0.684205	-0.754259	-0.289445	-0.305419	0.619501	-0.223788	0.730667
1.33958	1.109018	-0.319608	0.536523	-0.436362	-0.451562	-0.284485	-0.63406	-0.746291	-0.619256	-0.858886	-0.269455	-0.078665	0.925902	-0.075381	0.691172
1.441408	1.745899	0.208057	1.025482	-0.264803	-0.14934	-0.152328	-0.280512	-0.765147	-0.623349	-0.970601	-0.292464	-0.342818	0.617269	-0.441977	0.604036
0.998728	2.02636	-0.01727	0.902204	-0.057747	0.322713	0.017704	0.22228	-0.699107	-0.448696	-0.885644	-0.201594	-0.225324	0.836593	-0.349583	0.651607
1.043472	2.052595	-0.130729	0.858258	-0.019704	0.555962	0.109579	0.533243	-0.338352	0.087974	-0.324729	0.29316	0.108043	1.244407	-0.111288	0.691172
1.194232	2.114403	0.075373	1.065951	-0.236094	0.122339	-0.064389	0.120392	-0.412891	0.057634	-0.390614	0.270391	-0.006252	1.118221	-0.318869	0.596098
1.099757	2.093184	0.240096	1.155657	-0.201373	0.248753	-0.039799	0.214779	-0.43045	0.084483	-0.423465	0.180151	0.173619	1.362949	-0.149281	0.596098
1.095059	1.90459	-0.01727	0.905363	-0.403579	-0.173473	-0.192789	-0.154006	-0.782357	-0.351228	-1.01438	-0.269774	-0.0439	1.112608	-0.328299	0.604036
1.257512	1.942942	0.028989	0.92995	-0.415695	-0.16132	-0.232141	-0.14582	-0.684934	-0.021454	-0.81202	-0.134935	-0.181931	1.007625	-0.509261	0.580213
1.178541	1.951515	0.105333	0.973088	-0.45391	-0.210093	-0.242965	-0.23597	-0.596043	0.087974	-0.693291	0.000601	-0.599629	0.556631	-0.843117	0.596404
0.979948	1.98734	0.142657	0.979253	-0.14229	0.381251	-0.023402	0.374461	-0.727478	-0.069106	-0.860299	-0.088945	-0.597463	0.645111	-0.884323	0.516561
0.77192	2.117256	0.43558	1.161523	-0.273133	0.231839	-0.072407	0.341762	-0.465503	0.34745	-0.502011	0.383904	-0.347886	0.941041	-0.680449	0.532491
0.989991	2.298703	0.717165	1.466674	-0.163311	0.328189	0.012283	0.467285	-0.491474	0.323563	-0.629724	0.407424	-0.138975	1.290768	-0.437313	0.452727
0.99195	1.965558	0.333857	1.174687	-0.239106	0.23752	-0.025014	0.425064	-0.337007	0.655271	-0.385752	0.727614	0.011212	1.555166	-0.259287	0.316473
1.09095	1.981142	0.307924	1.202693	-0.285487	0.263229	-0.025873	0.410206	-0.285297	0.804831	-0.309662	0.890479	-0.075598	1.442477	-0.393606	0.27624
1.212895	2.079667	0.28049	1.214417	-0.328344	0.116273	-0.05745	0.387228	-0.230708	0.801629	-0.207447	1.007756	-0.023563	1.525525	-0.288197	0.364657
1.197037	1.921217	0.303016	1.19971	-0.214437	0.389516	0.066742	0.563218	-0.07134	0.875779	-0.005772	1.144377	0.01698	1.537699	-0.210751	0.40497
1.264199	2.034846	0.569936	1.415894	-0.11716	0.620362	0.18737	0.767586	-0.128725	0.80216	-0.097808	1.074629	-0.370579	1.117157	-0.534755	0.412979
1.370012	2.413043	0.75226	1.581956	0.039695	0.839787	0.298435	0.904094	-0.113325	0.664819	-0.107662	1.075665	0.00822	1.520231	-0.204271	0.476949
1.612636	2.567977	0.357951	1.357109	-0.023782	0.588204	0.224219	0.633995	-0.057042	0.863211	-0.01784	1.192138	0.054168	1.620182	-0.191389	0.420741
1.501943	2.583534	0.369478	1.38239	-0.100069	0.354269	0.141007	0.425064	-0.024778	0.820525	0.05523	1.288728	0.048554	1.615009	-0.215615	0.436989
1.31239	2.229156	0.343564	1.35434	-0.036607	0.572245	0.250652	0.676139	0.110352	0.900406	0.163974	1.406955	0.12073	1.643126	-0.202802	0.468702
1.17814	2.428985	0.551404	1.494813	-0.028211	0.582783	0.257788	0.735592	0.110352	0.86965	0.107124	1.454113	0.368702	1.972418	-0.112256	0.516561
1.263193	2.529038	0.669484	1.584528	0.112266	0.792054	0.407743	0.89082	0.281559	1.00539	0.263579	1.598335	0.316156	1.882165	-0.105928	0.619904
1.526141	2.591211	0.708081	1.633273	0.163967	0.733467	0.469533	0.87719	0.373654	0.971498	0.246631	1.625956	0.310698	1.967455	0.075551	0.596404
1.506025	2.637724	0.944114	1.869696	0.20668	0.733467	0.551163	0.912345	0.770742	1.458579	0.802917	2.122099	0.229518	1.866905	-0.036554	0.468702
1.506199	2.684298	1.03538	1.954918	0.258098	0.814295	0.625332	0.908948	0.628065	1.166932	0.5661	1.913076	0.402414	2.033094	0.111059	0.484933
1.568073	2.73148	1.027033	1.950376	0.237184	0.755195	0.613624	0.863198	0.968019	1.606894	1.068525	2.364772	0.665379	2.2772	0.302842	0.532491
1.634292	2.817587	1.049103	1.976597	0.497763	1.44655	0.834098	1.377105	0.562814	0.903268	0.360515	1.823109	0.601961	2.238867	0.271873	0.604036
1.662746	2.858108	1.005778	2.029185	0.506643	1.361195	0.849087	1.460112	0.64684	1.080059	0.448608	1.916807	0.479748	2.070276	0.111059	0.596404
1.627453	2.857611	0.953129	1.943417	0.53001	1.376594	0.886632	1.445295	0.707054	1.197815	0.5661	2.011309	0.177435	1.72825	-0.112067	0.588157
1.550381	2.55239	0.882839	1.910089	0.396804	1.016485	0.781558	1.145194	0.768167	1.28469	0.745372	2.151882	0.433304	2.088873	0.134635	0.564317
1.332192	2.275907	0.756703	1.723207	0.349188	1.093061	0.770316	1.170548	0.667538	1.248164	0.607478	1.985218	0.422755	2.028062	0.037176	0.564317
1.264761	2.048391	0.620366	1.630685	0.176805	0.76059	0.613624	0.870239	0.544114	1.033635	0.415855	1.846339	0.307955	1.895381	-0.054569	0.580514
1.277262	2.087402	0.739475	1.704727	0.129993	0.73875	0.579737	0.859642	0.665638	1.273407	0.670257	2.035437	0.577454	2.186317	0.229064	0.619904
1.465878	1.956752	0.320181	1.356735	0.07859	0.704656	0.541875	0.955921	0.668475	1.419784	0.584547	1.984217	0.502871	1.216833	0.333231	-0.228729
2.024579	2.559085	0.754953	1.822018	0.031585	1.072341	0.624803	1.407276	0.595332	1.790613	0.578582	2.093476	0.242109	0.244583	0.600342	-1.872204
2.527992	3.023473	0.490864	1.773604	-0.27266	0.749757	0.517434	1.225077	0.297704	2.04408	0.102222	2.149616	-0.189404	-0.223696	0.810911	-3.012913
3.085288	3.58178	0.421654	1.779316	-0.680111	-0.119259	0.244221	0.553549	0.150288	2.386458	-0.089929	2.440902	-0.133524	-0.115219	1.547208	-3.264455
3.489894	4.145878	0.533641	1.944971	-0.438107	0.407583	0.412309	0.997654	0.319424	3.025542	0.238106	3.033923	-0.430097	-0.215414	1.773419	-3.518539
4.309704	5.275232	1.039569	2.495111	-0.191938	0.873162	0.548933	1.3425	0.486365	3.673515	0.688693	3.65453	-0.200641	0.16877	2.379784	-3.5553
4.769599	5.791724	0.966603	2.457082	-0.202092	0.976789	0.563464	1.534498	0.388185	3.790088	0.530194	3.777375	-0.159866	0.4247	2.753197	-3.576603
5.283413	6.553453	1.41812	2.868852	-0.01604	1.412053	0.686939	1.857322	0.34835	3.941818	0.580721	4.022185	-0.207555	0.530216	2.937491	-3.698212
5.546552	6.839285	1.340893	2.842935	-0.014075	1.353945	0.646979	1.906117	0.628624	4.599356	1.121851	4.635905	0.294231	1.17753	3.654486	-3.590286
5.532295	6.615933	1.059992	2.572645	-0.240247	0.874938	0.443006	1.495737	0.15135	3.934059	0.334276	4.078819	-0.061185	0.997076	3.379858	-3.675451
5.354603	6.518734	0.82898	2.303369	-0.6144	0.217308	0.097334	0.921981	-0.088061	3.907665	0.116813	3.965872	-0.31755	0.867274	3.139048	-3.815137
5.511562	6.827207	1.2003	2.608436	-0.382218	0.73382	0.194584	1.359145	-0.345453	3.760565	-0.153962	3.752308	-0.531327	0.720255	2.983527	-4.026595
5.568809	7.056953	1.313883	2.710343	-0.59158	0.406558	-0.025946	1.006089	-0.06776	4.321585	0.402896	4.327032	-0.611728	0.760326	3.015289	-4.098601
5.41757	6.450962	0.773645	2.292843	-0.727723	0.241024	-0.171333	0.921024	-0.196686	4.292242	0.319293	4.246482	-0.475578	0.982619	3.137246	-4.142326
5.438687	6.417742	0.738124	2.250371	-1.01966	-0.206547	-0.42568	0.509942	-0.576596	3.798587	-0.178177	3.793893	-0.473053	0.999128	3.243217	-4.083813
5.579307	6.450832	0.617102	2.188133	-1.233128	-0.537888	-0.627222	0.179603	-0.76142	3.615022	-0.418354	3.615837	-0.544319	1.028792	3.248875	-4.068367
5.52936	6.426426	0.511101	2.132674	-1.227396	-0.485574	-0.654816	0.240679	-1.085317	3.331152	-0.85911	3.248885	-0.893659	0.789033	3.000991	-4.103039
5.52319	6.257512	0.395104	2.031777	-1.234837	-0.475558	-0.715339	0.276767	-1.142791	3.432057	-0.814404	3.282103	-1.535211	0.185064	2.293099	-4.358901
6.068249	7.049116	1.112283	2.638941	-1.265786	-0.287817	-0.737178	0.525019	-1.231064	3.61385	-0.803617	3.331242	-1.311263	0.453517	2.597548	-4.210447
5.688223	6.329064	0.321107	1.986393	-1.414399	-0.54472	-0.874864	0.336024	-1.37183	3.58227	-0.991926	3.231325	-0.967873	0.842727	2.994877	-4.000349
5.52176	6.935478	0.687644	2.265113	-1.655792	-1.075979	-1.115789	-0.142386	-1.166842	3.94956	-0.576201	3.635716	-1.098165	0.71778	2.778451	-4.166237
5.534668	6.970914	0.620354	2.172591	-1.703862	-1.189526	-1.133632	-0.25377	-1.291065	3.738712	-0.74263	3.453145	-1.287568	0.610547	2.607938	-4.294247
5.838443	7.236522	0.732887	2.244478	-1.706433	-0.992811	-1.142563	-0.163619	-1.704634	3.059268	-1.438264	2.86348	-1.317361	0.685358	2.642649	-4.164781
5.82173	6.910977	0.494832	1.995926	-1.543062	-0.613767	-1.013151	0.090618	-1.815477	3.014775	-1.504653	2.777542	-1.381211	0.579404	2.420194	-4.395692
5.707937	6.815743	0.953078	2.364752	-1.416061	-0.486839	-0.976105	0.090618	-1.49653	3.111982	-1.048146	3.192792	-1.308354	0.834728	2.235666	-5.255849
4.652033	4.892663	0.294078	1.666639	-1.207081	-0.234753	-0.825302	0.153257	-1.429678	2.678413	-1.069304	3.060152	-1.215524	1.229613	1.645029	-6.091253
4.014798	4.119642	0.518014	1.753681	-1.352131	-0.738157	-0.97325	-0.367361	-1.289557	2.599656	-0.988211	3.022256	-0.560849	1.753243	1.708416	-6.242141
3.501622	3.299051	0.525358	1.660433	-0.955598	-0.044215	-0.645295	0.017826	-1.003524	2.59571	-0.666251	3.126842	-0.377353	1.868782	1.439123	-6.149661
3.219254	2.902087	0.722253	1.788218	-0.920216	-0.022709	-0.575808	-0.146085	-0.897168	2.333232	-0.70423	2.996247	-0.00355	2.203906	1.62996	-6.198857
2.868343	2.298915	0.706572	1.676544	-0.743569	0.258848	-0.335884	0.038436	-0.715618	2.276989	-0.570019	2.98705	0.419989	2.008778	1.504337	-6.893836
2.841632	2.295828	1.25776	2.000587	-0.532914	0.479495	-0.039276	0.122826	-0.437179	2.319264	-0.35777	3.100684	0.275875	1.722687	1.15604	-7.222531
2.683497	1.716775	0.827454	1.556367	-0.42994	0.450838	0.234977	-0.14341	-0.102392	2.331606	-0.14265	3.301091	0.514021	1.841251	1.233327	-7.238706
2.822455	1.886413	1.18755	1.803148	-0.513028	-0.05413	0.289656	-0.590271	0.193372	2.302669	0.097352	3.543619	0.817006	2.134123	1.451428	-7.354864
2.73442	1.95314	1.291335	1.83181	-0.259774	0.102908	0.525436	-0.479896	0.552235	2.439815	0.446489	3.694863	1.019021	2.300164	1.47483	-7.212148
2.761051	2.242937	1.828832	2.219844	-0.004955	0.281431	0.718515	-0.276494	0.801609	2.587653	0.758621	3.780131	1.006742	2.424193	1.375441	-7.037244
2.825046	2.336953	1.682059	2.137209	0.070019	0.393425	0.804169	-0.202665	0.700414	2.242787	0.547666	3.520595	1.028504	2.06442	1.311226	-7.105679
2.901307	2.511293	1.809325	2.215866	-0.259717	-0.383653	0.547348	-0.855837	0.537672	1.86663	0.353124	3.213964	1.141728	1.947227	1.487983	-7.190316
2.703019	2.215416	1.56685	2.007395	0.126861	0.325385	0.803666	-0.319993	0.683502	2.036157	0.676925	3.404045	1.103314	1.649201	1.375336	-7.464838
2.604992	2.207864	1.537878	1.959382	0.129031	0.254806	0.737129	-0.347247	0.970218	2.372632	1.176327	3.788095	1.084319	1.418078	1.402694	-7.483928
2.618028	2.442794	1.627255	2.105806	0.394249	1.012155	0.884573	0.292857	1.049645	2.539157	1.224907	3.871319	1.373736	1.754357	1.831687	-7.387639
2.733679	2.448464	1.658988	2.17454	0.028263	0.429309	0.596549	-0.148777	0.865556	2.406346	0.897513	3.690947	0.82078	1.515424	1.451695	-7.63652
2.717601	2.442072	1.685425	2.275066	-0.005933	0.402217	0.578224	-0.120505	0.625138	2.164665	0.492153	3.343077	0.984771	1.861265	1.610982	-7.772714
2.584636	2.214572	1.413641	2.083521	-0.013488	0.568936	0.611334	0.015053	0.658729	2.292315	0.547203	3.383501	1.015648	2.076319	1.655242	-7.868021
2.639908	2.20722	1.374508	2.136311	-0.060096	0.50976	0.548704	-0.010767	0.62112	2.292315	0.540592	3.352941	0.810505	2.011161	1.514201	-8.029847
2.597694	2.124388	1.102807	1.974404	-0.247549	0.285989	0.412631	-0.170947	0.501415	2.261131	0.424599	3.248885	0.817299	2.086365	1.429676	-8.14381
2.542483	1.967978	0.803894	1.805371	-0.347281	0.303857	0.347346	-0.128579	0.510934	2.277808	0.492408	3.205963	1.0945	2.410937	1.730937	-8.094583
2.482834	1.877726	0.553878	1.606794	-0.557802	-0.069814	0.189869	-0.418392	0.296578	2.052058	0.194222	2.852773	0.670547	1.954683	1.34676	-8.22351
2.517702	2.09485	0.669484	1.678718	-0.565722	0.020064	0.161491	-0.400882	0.305352	2.099094	0.236654	2.815218	0.432257	1.681495	1.116648	-8.304956
2.429221	1.885896	0.3627	1.461222	-0.71382	-0.236333	0.056462	-0.653874	0.349356	2.222157	0.400499	2.906018	0.375827	1.658497	1.106458	-8.369274
2.341886	1.833643	0.198313	1.320783	-0.69688	-0.116195	0.013716	-0.619655	0.129698	1.981372	0.174902	2.66727	0.367997	1.686569	1.08696	-8.355772
2.314234	1.705689	-0.001809	1.233081	-0.883679	-0.341685	-0.158451	-0.858058	0.193372	2.101045	0.31643	2.711565	0.649862	2.109937	1.513123	-8.271976
2.468702	2.176473	0.532959	1.644645	-0.841956	-0.109477	-0.167552	-0.618606	-0.175938	1.639867	-0.148416	2.269917	0.238165	1.704532	1.07559	-8.211447
2.200029	1.578379	-0.237656	1.035323	-1.074671	-0.525335	-0.34511	-0.920476	-0.462253	1.217379	-0.5275	1.832483	-0.099603	1.419832	0.75297	-8.104172
2.362361	2.146777	0.395303	1.527843	-1.06172	-0.480547	-0.317692	-0.839279	-0.500255	1.214645	-0.548122	1.735543	-0.600994	0.870143	0.318708	-8.11847
2.143912	1.689977	-0.160917	1.115021	-1.248822	-0.787884	-0.508255	-1.110728	-0.596629	1.094776	-0.737647	1.567077	0.120103	1.648277	1.070953	-7.974812
2.173909	1.923565	0.12796	1.312565	-1.097388	-0.457147	-0.417327	-0.874428	-0.599743	1.16983	-0.734578	1.520397	-0.00738	1.525525	0.966717	-7.964478
2.148472	1.627687	-0.216222	1.048878	-1.127523	-0.500873	-0.450988	-0.933359	-0.402313	1.461176	-0.425802	1.783277	0.025394	1.594043	1.062105	-8.027994
2.296754	1.981935	0.273711	1.426707	-0.971264	-0.144277	-0.344893	-0.627188	-0.338352	1.670372	-0.296999	1.923899	0.424804	2.071666	1.377987	-8.078534
2.087255	1.443604	-0.394525	0.898403	-1.093753	-0.267264	-0.37116	-0.69208	-0.176138	1.939094	0.028612	2.18166	0.105991	1.783808	1.141891	-8.138747
2.319529	1.974725	0.357686	1.527843	-0.91963	0.012365	-0.221246	-0.364234	0.000738	2.172511	0.373133	2.465916	0.584577	2.305234	1.642536	-7.908888
2.14411	1.627687	-0.048026	1.13438	-0.91003	0.041326	-0.224988	-0.379247	-0.083325	1.961278	0.133835	2.231331	-0.014636	1.668211	0.986069	-7.847253
2.235596	1.996279	0.387822	1.498029	-0.956215	-0.089692	-0.233914	-0.477877	0.08326	2.178762	0.368594	2.457022	0.430069	2.086365	1.397897	-7.75438
2.251248	1.783608	0.124839	1.320783	-0.966023	-0.125826	-0.238689	-0.503965	-0.184754	1.693871	-0.100257	2.017159	-0.000168	1.613024	0.987544	-7.867161
2.241337	1.899977	0.273711	1.39478	-1.162605	-0.467776	-0.395578	-0.857574	-0.076232	1.911483	0.078212	2.144525	0.343141	1.923879	1.306932	-7.858889
2.054995	1.497558	-0.134944	1.032553	-1.163869	-0.495736	-0.367689	-0.881056	-0.455186	1.312426	-0.570317	1.642867	0.274974	1.88762	1.254577	-7.902107
2.19168	1.688175	0.12607	1.255492	-1.009645	-0.246797	-0.26313	-0.644012	-0.355994	1.473864	-0.309489	1.726183	0.036396	1.630521	0.941096	-7.828922
2.018441	1.363565	-0.24428	0.92388	-1.003385	-0.271475	-0.297535	-0.717127	-0.299005	1.529899	-0.200106	1.725407	-0.520227	1.011146	0.357932	-7.756031
2.098381	1.490874	-0.09412	1.026955	-0.65492	0.420593	-0.01678	-0.109982	-0.469707	1.183225	-0.59452	1.447668	-0.350952	1.182576	0.433988	-7.537213
2.024583	1.410057	-0.242978	0.966235	-0.872058	0.069176	-0.166219	-0.364434	-0.105963	1.787602	0.140366	1.988174	0.014418	1.539664	0.816902	-7.385601
2.073104	1.550716	-0.140028	0.958715	-1.200221	-0.677702	-0.461402	-1.038439	-0.151612	1.712631	0.096304	1.96967	0.233226	1.776406	0.982531	-7.294752
1.884875	1.213959	-0.565282	0.600899	-1.174758	-0.551377	-0.431843	-0.951986	-0.304354	1.548103	-0.040734	1.823109	0.098666	1.608353	0.779714	-7.272097
2.022689	1.65245	0.089534	1.125729	-1.273099	-0.874957	-0.53655	-1.186115	-0.56024	1.110984	-0.446462	1.396485	0.076469	1.613024	0.739554	-7.024393
1.902413	1.448097	-0.206816	0.85938	-0.978992	-0.326533	-0.325861	-0.707367	-0.532248	1.181219	-0.468475	1.346381	-0.137191	1.355986	0.359705	-6.999091
1.852517	1.303573	-0.385236	0.719589	-0.999045	-0.251659	-0.328692	-0.650282	-0.27354	1.625767	0.113604	1.790524	-0.000972	1.625908	0.518079	-6.762723
1.810148	1.136702	-0.53427	0.6282	-1.041807	-0.316784	-0.378068	-0.698275	-0.214121	1.71206	0.243915	1.90725	0.120679	1.717975	0.573404	-6.542626
1.810148	1.240973	-0.470503	0.701532	-1.409637	-1.155533	-0.656903	-1.37558	-0.446607	1.339315	-0.110822	1.576862	-0.040152	1.517108	0.43332	-6.335518
1.967367	1.514626	-0.042905	1.054465	-1.236087	-0.80516	-0.537016	-1.132674	-0.587494	1.103361	-0.345366	1.343326	-0.379373	1.140271	0.041086	-6.281332
1.937963	1.601752	0.069769	1.112295	-0.973748	-0.321941	-0.37795	-0.817079	-0.292506	1.486063	0.093355	1.646645	-0.190024	1.316918	0.205229	-6.149321
1.852517	1.399443	-0.216612	0.892634	-0.849493	-0.196215	-0.282228	-0.691711	-0.278682	1.478802	0.094993	1.672857	-0.095159	1.408381	0.214331	-6.074152
1.818907	1.341322	-0.33435	0.774252	-1.12742	-0.735254	-0.473904	-1.187062	-0.297689	1.367169	0.033747	1.625956	0.087197	1.562522	0.421665	-5.922178
1.747384	1.110582	-0.472376	0.607329	-0.936085	-0.4117	-0.344247	-0.897952	-0.410146	1.233368	-0.102716	1.458222	-0.037106	1.447837	0.205229	-5.935218
1.920735	1.500895	0.135879	1.123081	-0.9203	-0.416885	-0.326669	-0.876062	-0.689664	0.81431	-0.61871	1.085853	0.0471	1.585528	0.36947	-5.892642
1.749384	1.098169	-0.410653	0.668132	-0.981234	-0.606333	-0.373976	-0.962288	-0.766781	0.725033	-0.808855	0.992301	0.010368	1.544957	0.314639	-5.892642
1.881805	1.349524	-0.042905	0.971997	-0.95899	-0.554328	-0.376642	-0.958641	-0.513312	1.181219	-0.387251	1.441704	0.227396	1.787594	0.442216	-5.892642
1.911138	1.299018	-0.068522	0.938745	-0.970294	-0.402828	-0.357687	-0.831107	-0.614021	1.113927	-0.541517	1.324825	0.296929	1.914691	0.550894	-5.871384
2.039271	1.442104	0.225275	1.178631	-0.725663	-0.001282	-0.179863	-0.433479	-0.70222	0.983578	-0.652124	1.252136	0.256565	1.903576	0.505947	-5.88201
1.911138	1.196712	-0.197109	0.871809	-0.767811	-0.140551	-0.225298	-0.481079	-0.799547	0.894279	-0.785065	1.134129	0.142385	1.827811	0.441316	-5.820668
1.963876	1.350122	0.022703	1.007897	-0.854541	-0.185941	-0.280628	-0.545584	-0.821655	0.829375	-0.7791	1.158486	0.142685	1.927051	0.423669	-5.723142
1.825734	1.09675	-0.430632	0.686025	-0.75871	0.020064	-0.209402	-0.397623	-0.811855	0.906451	-0.655773	1.179016	0.021788	1.747187	0.214192	-5.596853
1.816968	1.141053	-0.389197	0.661867	-0.970294	-0.272215	-0.376642	-0.614067	-0.826673	0.878593	-0.666108	1.230209	-0.236102	1.505176	-0.020364	-5.408744
1.859366	1.270014	-0.242082	0.795519	-1.031599	-0.302326	-0.40501	-0.665615	-0.881469	0.829375	-0.687168	1.181257	-0.206794	1.511045	0.015517	-5.315279
1.892302	1.551303	0.119997	1.115021	-0.869698	-0.015252	-0.326669	-0.484299	-0.708549	1.024199	-0.508556	1.276327	-0.309454	1.389053	-0.163873	-5.333903
1.84318	1.450462	-0.022658	0.996615	-0.786989	0.139774	-0.256627	-0.291568	-0.670768	1.136006	-0.552913	1.276327	-0.123656	1.643144	0.042365	-5.23046
1.875998	1.4652	-0.008681	0.986057	-0.976319	-0.206133	-0.435971	-0.622711	-0.564177	1.32361	-0.296999	1.413925	0.046281	1.832096	0.130332	-5.127493
1.860508	1.357864	-0.079143	0.953108	-1.122772	-0.556699	-0.53547	-0.846045	-0.586002	1.318216	-0.266411	1.438269	-0.087299	1.643057	-0.01183	-5.088436
1.795981	1.279549	-0.206043	0.901258	-1.214885	-0.723833	-0.592422	-0.998872	-0.684934	1.166932	-0.435488	1.273707	-0.163045	1.574172	-0.092016	-5.035225
1.83199	1.227953	-0.176017	0.87786	-1.026165	-0.416885	-0.446756	-0.783484	-0.656611	1.174219	-0.396911	1.34825	-0.163048	1.551327	-0.144874	-4.98608
1.954324	1.350122	0.074745	1.07921	-0.971956	-0.471214	-0.434559	-0.875049	-0.602893	1.224588	-0.330346	1.444338	0.095234	1.796353	0.128108	-4.953527
1.893029	1.182776	-0.151117	0.92388	-0.988547	-0.506048	-0.449392	-0.904091	-0.541254	1.29002	-0.210898	1.491162	0.558073	2.325189	0.518398	-4.894358
1.981007	1.386534	0.07859	1.098303	-1.11068	-0.76446	-0.514509	-1.094534	-0.453592	1.397025	-0.068702	1.580463	0.039737	1.764347	0.014839	-4.861971
1.850026	1.069127	-0.370603	0.679679	-0.887833	-0.281607	-0.317131	-0.584836	-0.607891	1.141868	-0.312844	1.32065	0.341833	2.09446	0.343216	-4.70838
1.839945	0.969825	-0.405252	0.604125	-1.02275	-0.626401	-0.380655	-0.889379	-0.883181	0.674102	-0.814907	0.897713	-0.036484	1.683462	-0.01183	-4.698303
1.884598	0.931159	-0.355977	0.649091	-0.785058	-0.231357	-0.206511	-0.490797	-0.628306	1.116848	-0.310178	1.273241	-0.279863	1.452622	-0.215778	-4.738638
2.048472	1.457964	0.308975	1.150549	-0.702484	-0.09058	-0.12275	-0.300728	-0.724223	0.946739	-0.458839	1.108162	0.15661	1.938179	0.165644	-4.70838
1.821949	0.95615	-0.436051	0.498503	-1.051748	-0.752684	-0.406456	-0.911466	-0.832233	0.823601	-0.549298	0.988903	-0.37545	1.313023	-0.392987	-4.718461
2.003749	1.436464	0.252922	1.038073	-1.049397	-0.822684	-0.410331	-0.955014	-0.94972	0.624557	-0.77922	0.802247	-0.550165	1.10583	-0.594928	-4.626107
1.89482	1.163646	-0.134944	0.671233	-1.162286	-1.054838	-0.512932	-1.169356	-1.213175	0.228982	-1.220048	0.405303	-0.295183	1.354181	-0.38255	-4.486008
1.796354	0.971418	-0.378613	0.43029	-1.331005	-1.418434	-0.679635	-1.513683	-1.026325	0.51146	-0.951034	0.639452	0.101333	1.873339	-0.033	-4.34678
1.770584	0.925317	-0.492271	0.356132	-1.220446	-1.101878	-0.611478	-1.260995	-0.902246	0.72587	-0.720272	0.871895	-0.258898	1.469321	-0.382177	-4.386471
1.910225	1.206504	-0.084131	0.734789	-1.081705	-0.822684	-0.526255	-0.984093	-0.674019	1.178525	-0.219413	1.283615	0.021778	1.839888	-0.084645	-4.404658
1.982586	1.406843	0.079698	0.889719	-0.858144	-0.296532	-0.336214	-0.500348	-0.950049	0.844561	-0.72184	0.940514	0.25938	2.125821	0.15324	-4.464354
1.974071	1.341322	0.023493	0.828999	-0.917682	-0.402828	-0.375254	-0.529841	-0.78521	1.081258	-0.485144	1.270786	0.415746	2.417097	0.379386	-4.307159
1.926674	1.199023	-0.180699	0.704572	-1.211214	-0.830094	-0.577764	-0.931938	-0.686998	1.281062	-0.27642	1.458222	0.526386	2.519326	0.430285	-4.336868
1.879406	1.004897	-0.459764	0.471348	-1.219385	-0.903864	-0.577529	-0.92964	-0.993906	0.796027	-0.782459	1.01331	-0.208217	1.758449	-0.321034	-4.436185
1.886285	0.995466	-0.455994	0.46136	-1.1039	-0.602393	-0.522153	-0.742796	-0.808815	1.072903	-0.456256	1.219492	0.214025	2.259084	0.123459	-4.307159
1.95061	1.124428	-0.247325	0.658704	-1.065236	-0.575614	-0.472147	-0.689453	-1.110414	0.601584	-0.894622	0.80055	0.010804	2.061788	-0.050915	-4.247859
1.967526	1.254984	-0.129821	0.716489	-1.025204	-0.580894	-0.461402	-0.689453	-1.083519	0.585871	-0.864877	0.84831	-0.310648	1.648928	-0.382515	-4.169035
1.774897	0.798056	-0.7174	0.202982	-1.066136	-0.735254	-0.502154	-0.85641	-0.684056	1.180623	-0.161962	1.478436	0.050369	2.054539	0.0068	-4.11991
1.902227	1.142236	-0.297011	0.575024	-0.90098	-0.432668	-0.322649	-0.523154	-0.873929	0.872009	-0.507289	1.150178	-0.04372	1.979717	-0.121223	-4.228127
1.719332	0.853431	-0.677873	0.251376	-1.053867	-0.659548	-0.440047	-0.772066	-0.883548	0.823601	-0.552049	1.106294	-0.425815	1.438589	-0.582415	-4.328614
1.827987	1.003211	-0.461431	0.495215	-0.98507	-0.546094	-0.364549	-0.689453	-0.701305	1.070199	-0.319666	1.241817	0.071319	1.931142	-0.123621	-4.170618
1.732894	0.749814	-0.799017	0.210202	-1.024854	-0.758735	-0.448218	-0.900333	-0.738691	0.962904	-0.436411	1.125306	0.039737	1.839888	-0.226636	-4.111655
1.914471	1.356914	0.038393	0.843782	-0.868444	-0.497481	-0.291455	-0.684372	-0.731375	0.87007	-0.350338	1.144377	-0.224868	1.51616	-0.486058	-4.023502
1.745864	0.997215	-0.425238	0.450809	-0.916179	-0.700249	-0.337395	-0.834395	-0.688482	0.896585	-0.365837	1.197599	0.214973	1.981511	-0.084773	-3.877346
1.878415	1.357452	0.088232	0.882467	-0.768547	-0.429926	-0.236935	-0.638756	-0.640885	0.973865	-0.223391	1.309651	0.126497	1.885708	-0.211086	-3.914755
1.916034	1.292375	0.017788	0.816502	-0.703618	-0.346773	-0.185923	-0.552271	-0.70425	0.905199	-0.352773	1.242955	0.266018	2.033999	-0.058896	-3.8856
1.907939	1.308182	0.0612	0.839292	-0.88607	-0.68328	-0.325217	-0.849081	-0.985439	0.508088	-0.894729	0.826304	0.014405	1.770413	-0.29624	-3.982932
1.738366	1.062943	-0.180781	0.61682	-0.885158	-0.637295	-0.302278	-0.757868	-0.649495	1.009561	-0.330133	1.29223	-0.235485	1.522097	-0.512052	-3.963432
1.801327	1.429492	0.243697	1.004921	-0.791646	-0.548809	-0.267005	-0.69136	-0.356728	1.474616	0.228135	1.755597	0.470215	2.228309	0.050202	-3.856483
1.707631	1.227953	0.002903	0.783308	-0.714298	-0.455904	-0.240756	-0.669531	-0.779061	0.795622	-0.40875	1.149691	0.482089	2.252274	0.117385	-3.806615
1.743479	1.30156	-0.000552	0.823211	-0.90098	-0.666663	-0.365831	-0.871516	-0.802368	0.817136	-0.401506	1.104218	0.300534	1.978195	-0.118644	-3.874437
1.62777	1.093126	-0.236465	0.632232	-1.145484	-1.048762	-0.534477	-1.206308	-0.955855	0.568608	-0.597311	0.913237	0.007196	1.68294	-0.382515	-3.934213
1.688344	1.216558	-0.12177	0.718156	-1.146583	-1.028543	-0.565188	-1.246327	-0.494213	1.277181	0.171124	1.533518	0.269331	1.918487	-0.12252	-3.796943
1.643122	1.199983	-0.160379	0.716534	-0.979134	-0.80566	-0.460163	-1.056642	-0.852668	0.783257	-0.29575	1.093886	-0.029186	1.584834	-0.417873	-3.874437
1.653529	1.308506	-0.076208	0.769249	-1.269431	-1.309768	-0.695091	-1.479951	-0.946816	0.631883	-0.51796	0.962412	-0.027273	1.608353	-0.421733	-3.758295
1.595051	1.185069	-0.246727	0.599014	-1.139664	-0.961547	-0.575911	-1.147807	-0.908152	0.669865	-0.408491	1.025091	0.20828	1.849968	-0.258862	-3.730744
1.72397	1.322635	-0.090595	0.7637	-1.328958	-1.331489	-0.721267	-1.425181	-1.152503	0.327035	-0.826777	0.730519	0.133263	1.767741	-0.280121	-3.644105
1.62721	0.994135	-0.478396	0.39252	-1.335681	-1.292718	-0.731135	-1.344024	-0.798534	0.851046	-0.221792	1.258276	0.006448	1.698314	-0.391422	-3.661968
1.801778	1.408099	0.043289	0.801652	-1.182254	-1.089537	-0.628831	-1.175064	-0.979145	0.631883	-0.618764	1.008604	0.038885	1.801714	-0.272306	-3.71008
1.705151	1.285699	-0.160379	0.740729	-1.029592	-0.881454	-0.525824	-0.973216	-0.841333	0.857244	-0.373793	1.293873	0.250981	2.083742	-0.075847	-3.721101
1.747703	1.23779	-0.187495	0.667206	-1.12742	-1.042727	-0.588284	-1.120077	-0.850615	0.847475	-0.360256	1.312825	0.356845	2.211104	-0.043042	-3.817719
1.689789	1.164648	-0.261791	0.632232	-1.052738	-0.811296	-0.526255	-0.904024	-0.906667	0.772404	-0.396348	1.210422	0.07287	1.934133	-0.252663	-3.942466
1.761334	1.273353	-0.167213	0.720924	-1.043952	-0.787757	-0.516124	-0.882694	-0.797098	0.957237	-0.24763	1.374901	0.104067	1.99081	-0.178424	-3.874437
1.707631	1.164648	-0.241584	0.632232	-0.891387	-0.645045	-0.408961	-0.779965	-0.858432	0.854231	-0.347989	1.363594	0.053471	1.905733	-0.260591	-3.796943
1.735011	1.337086	-0.071457	0.774722	-0.882587	-0.624509	-0.395633	-0.768138	-0.689856	1.086135	-0.100052	1.495171	0.231508	2.115654	-0.146285	-3.808038
1.696556	1.22952	-0.124957	0.746589	-0.796094	-0.55487	-0.332207	-0.71842	-0.74318	0.970577	-0.286632	1.433235	0.038632	1.845538	-0.392879	-3.827404
1.834532	1.563602	0.304907	1.079467	-0.85531	-0.695967	-0.386061	-0.801373	-0.717071	0.954476	-0.289166	1.42983	0.167154	2.015731	-0.313786	-3.846786
1.720503	1.17357	-0.150825	0.704031	-0.898403	-0.75305	-0.373976	-0.853077	-0.640885	1.100456	-0.170035	1.498314	0.068516	1.915803	-0.357186	-3.798362
1.847659	1.27225	-0.191434	0.679924	-0.991348	-0.956554	-0.452826	-1.031372	-0.384501	1.481375	0.226647	1.745587	0.034374	1.936567	-0.17034	-3.817719
1.93785	1.313875	-0.070163	0.758074	-0.619892	-0.167344	-0.159217	-0.384444	-0.74318	0.945869	-0.393585	1.242955	-0.188712	1.671715	-0.425523	-3.963432
1.797843	1.118237	-0.362916	0.524065	-0.929066	-0.886997	-0.380655	-0.958641	-0.982365	0.544028	-0.800631	0.845546	-0.632021	1.147236	-0.847101	-3.924482
1.956375	1.385806	0.042133	0.833712	-0.635742	-0.253118	-0.157257	-0.459058	-0.460597	1.293067	0.126933	1.580306	0.269331	2.091896	-0.084773	-3.740391
1.794618	0.966235	-0.405252	0.481148	-0.814026	-0.599833	-0.290228	-0.740558	-0.903319	0.61679	-0.549733	0.982305	-0.530727	1.223265	-0.836582	-3.71008
1.962057	1.284063	0.105333	0.843782	-0.625029	-0.221518	-0.146476	-0.410245	-0.525806	1.17357	0.013048	1.493555	0.290762	2.131246	-0.114663	-3.537359
1.931579	1.156139	-0.089142	0.686439	-0.748722	-0.565168	-0.229289	-0.71842	-0.599325	1.009203	-0.104733	1.398272	0.108331	1.914691	-0.308691	-3.546919
1.803944	1.134717	-0.094176	0.683438	-0.656517	-0.322482	-0.172984	-0.516435	-1.007508	0.438592	-0.750607	0.822671	-0.329342	1.435916	-0.742607	-3.546919
1.834532	1.119604	-0.104315	0.6502	-0.627639	-0.322482	-0.172984	-0.462149	-0.774538	0.752668	-0.393176	1.098929	0.075528	1.862308	-0.377499	-3.527802
1.912129	1.479477	0.360374	1.018864	-0.401215	0.037305	-0.021927	-0.228227	-0.559244	1.071565	0.002113	1.444256	0.28487	2.004482	-0.233695	-3.356475
1.851317	1.271633	0.129658	0.85525	-0.59064	-0.357113	-0.154288	-0.490856	-0.625869	0.894009	-0.099382	1.32139	0.141323	1.88762	-0.332909	-3.309115
1.792248	1.422241	0.155833	0.879918	-0.756732	-0.674367	-0.268598	-0.696246	-0.717071	0.779906	-0.273891	1.214873	0.446472	2.190486	-0.048279	-3.280748
1.730437	1.166887	-0.136197	0.62895	-0.798079	-0.650392	-0.294238	-0.677462	-0.56327	1.031304	-0.04759	1.423212	0.473358	2.296205	-0.019812	-3.365959
1.723629	1.160173	-0.206809	0.631835	-0.953617	-0.886997	-0.376619	-0.853096	-0.5946	1.089605	-0.11767	1.454818	0.694975	2.557908	0.210904	-3.413438
1.521062	0.59786	-0.856091	0.110985	-1.12742	-1.156776	-0.457536	-1.002616	-0.679705	0.993121	-0.215452	1.38069	0.30723	2.187178	-0.140353	-3.527802
1.710022	1.146227	-0.151704	0.655859	-1.004747	-0.845995	-0.390127	-0.779283	-0.711308	0.971154	-0.329866	1.332409	0.025137	1.921442	-0.385651	-3.613959
1.632549	0.887977	-0.429176	0.457322	-0.660369	-0.262513	-0.113983	-0.214163	-0.647137	1.096374	-0.159317	1.467657	0.295028	2.232355	-0.154271	-3.60437
1.642667	1.174132	-0.155747	0.725298	-0.860514	-0.532486	-0.267005	-0.413786	-0.571334	1.178525	-0.033057	1.583992	0.153949	2.070724	-0.311696	-3.546919
1.65265	0.955387	-0.332154	0.590242	-1.0204	-0.845995	-0.386061	-0.724192	-0.678271	1.045372	-0.212979	1.474758	0.360112	2.338405	-0.057912	-3.451495
1.608927	0.906971	-0.427452	0.485628	-1.099652	-1.059391	-0.430709	-0.889527	-0.474821	1.258498	0.038568	1.667099	0.291146	2.257973	-0.094653	-3.298451
1.491995	0.762832	-0.605583	0.298786	-1.051748	-1.030776	-0.406456	-0.897053	-0.877101	0.579442	-0.652124	1.034353	0.196872	2.076061	-0.280121	-3.2902
1.719812	1.188876	-0.055763	0.793475	-0.850949	-0.772655	-0.257778	-0.677462	-0.650959	0.918295	-0.289594	1.291667	0.340032	2.247228	-0.114275	-3.138308
1.570991	0.789782	-0.479667	0.406546	-0.852579	-0.759874	-0.303554	-0.698427	-0.577932	0.981882	-0.132019	1.28226	-0.116155	1.660377	-0.599646	-3.147697
1.649425	0.946811	-0.276859	0.524065	-0.85968	-0.812558	-0.313098	-0.742796	-0.599325	0.891839	-0.235757	1.166468	0.257814	1.970853	-0.299789	-3.025952
1.58792	0.856224	-0.392628	0.395706	-0.683193	-0.441489	-0.168198	-0.410448	-0.559244	1.036545	-0.096385	1.187203	0.241295	1.905733	-0.286714	-2.980374
1.689636	1.139004	-0.019565	0.731042	-0.832294	-0.829103	-0.295481	-0.779283	-0.524475	1.083527	-0.049964	1.23433	0.071319	1.746795	-0.449966	-3.083174
1.518093	0.967967	-0.30724	0.527169	-0.725353	-0.666663	-0.264221	-0.686941	-0.448184	1.138484	0.062103	1.350803	-0.007576	1.695087	-0.532664	-3.167635
1.645216	1.216097	0.03731	0.800878	-0.777757	-0.74894	-0.302278	-0.772066	-0.741675	0.756333	-0.404166	0.96164	0.313498	2.054899	-0.243774	-3.101915
1.608102	0.989136	-0.221247	0.611226	-0.928525	-0.926882	-0.384806	-0.956171	-0.698393	0.798537	-0.294232	1.052906	0.394417	2.068181	-0.208333	-3.139446
1.581947	0.859159	-0.327979	0.48758	-0.719695	-0.565168	-0.210485	-0.603781	-0.889411	0.516831	-0.61754	0.799497	0.24788	1.931142	-0.325133	-3.175886
1.624963	1.116413	-0.013541	0.779464	-0.963317	-1.048762	-0.399728	-1.092572	-0.575268	0.957237	-0.116598	1.189111	0.270901	1.934484	-0.354724	-3.100794
1.537489	1.152326	0.016717	0.75237	-0.856123	-0.955826	-0.340227	-0.987758	-0.768625	0.640944	-0.33497	1.005494	0.388002	2.10231	-0.337169	-3.063341
1.419909	0.755207	-0.469035	0.335556	-0.88076	-1.024523	-0.394147	-1.085722	-0.79567	0.669865	-0.228985	1.046497	0.174058	1.756885	-0.540071	-3.027043
1.419909	0.848733	-0.392628	0.375208	-0.925574	-1.195689	-0.454696	-1.259036	-0.932689	0.466713	-0.502011	0.819309	0.237844	1.867838	-0.470743	-3.036388
1.478678	0.981684	-0.190949	0.563292	-1.007004	-1.306359	-0.519595	-1.341047	-0.951193	0.493642	-0.443732	0.865403	-0.015507	1.579985	-0.721252	-3.035293
1.467772	1.046293	-0.181001	0.539386	-0.879912	-1.155715	-0.457363	-1.20099	-0.979145	0.502272	-0.508299	0.938009	-0.084547	1.482875	-0.805012	-3.036388
1.511415	1.131757	-0.14105	0.62895	-0.913279	-1.064569	-0.465447	-1.132674	-1.048376	0.451291	-0.58612	0.867697	-0.303253	1.29274	-0.994345	-3.139446
1.548412	1.181354	-0.030526	0.685634	-0.979134	-1.144876	-0.523226	-1.161754	-1.080454	0.403599	-0.651347	0.820752	-0.245561	1.373937	-0.886864	-3.111292
1.506526	0.785563	-0.507694	0.271401	-0.925574	-1.03599	-0.519157	-1.107348	-1.03884	0.493642	-0.593001	0.8662	-0.026558	1.660404	-0.596217	-3.110166
1.513204	0.856224	-0.377315	0.351586	-1.041593	-1.322137	-0.623833	-1.42199	-1.232702	0.205595	-0.847267	0.660575	-0.220498	1.465491	-0.796063	-3.110166
1.49807	0.890908	-0.327108	0.405142	-1.000294	-1.287936	-0.61312	-1.371606	-1.201023	0.24937	-0.776314	0.80004	-0.160143	1.48861	-0.739498	-3.083174
1.472023	0.969099	-0.271842	0.491699	-0.78939	-0.812558	-0.472147	-1.0276	-1.03728	0.412914	-0.572678	0.958231	-0.017039	1.597095	-0.614986	-3.101915
1.487168	0.947993	-0.186545	0.521514	-0.602977	-0.5397	-0.347367	-0.771232	-1.07885	0.433654	-0.618764	0.890479	-0.042682	1.551289	-0.689745	-3.139446
1.450228	0.941688	-0.16138	0.494705	-0.635742	-0.5642	-0.368861	-0.894535	-0.998901	0.529486	-0.506622	0.95682	-0.23148	1.312226	-0.862691	-3.19586
1.49563	0.949047	-0.106182	0.527428	-0.68498	-0.73075	-0.397093	-1.042397	-1.009805	0.478323	-0.520653	0.937219	0.086002	1.705126	-0.572804	-3.186448
1.471417	0.949976	-0.071457	0.476879	-0.735175	-0.928158	-0.430539	-1.157298	-1.033118	0.444982	-0.546557	0.891586	0.263743	1.864249	-0.442158	-3.128924
1.445437	0.942675	-0.051007	0.503607	-0.693928	-0.928158	-0.438565	-1.261506	-1.355419	-0.114057	-1.12983	0.407833	0.392847	1.950223	-0.327088	-3.110166
1.508272	1.076712	0.199247	0.702304	-0.627639	-0.701594	-0.362093	-1.121344	-1.164139	0.17199	-0.803005	0.707168	0.18879	1.729239	-0.530511	-3.158235
1.52411	0.998483	0.141996	0.661571	-0.565953	-0.569181	-0.265212	-0.919808	-1.145683	0.198879	-0.820668	0.753441	-0.134426	1.390589	-0.812105	-3.19586
1.599626	1.118788	0.321482	0.807009	-0.475555	-0.411184	-0.154288	-0.727056	-0.952738	0.541576	-0.522334	0.936811	0.353701	1.968509	-0.276987	-3.111292
1.402406	0.665275	-0.241584	0.365651	-0.430454	-0.256558	-0.079345	-0.587023	-0.959005	0.529365	-0.462054	0.96164	0.246297	1.907677	-0.372257	-3.139446
1.564376	1.048511	0.266288	0.723672	-0.617441	-0.655778	-0.232141	-0.925972	-1.15423	0.215621	-0.752833	0.684931	0.056696	1.671988	-0.586885	-3.186448
1.413292	0.707301	-0.206043	0.342028	-0.70303	-0.870481	-0.313432	-1.110566	-1.558554	-0.412782	-1.408382	0.107428	-0.29035	1.294139	-0.944414	-3.252416
1.497389	0.693908	-0.170649	0.34842	-1.007004	-1.477526	-0.562647	-1.706268	-1.585287	-0.384757	-1.420131	0.063402	-0.364487	1.223265	-1.027563	-3.19586
1.412829	0.479579	-0.45443	0.064505	-0.907274	-1.287936	-0.492457	-1.506425	-1.300963	0.095118	-0.853958	0.475788	-0.306268	1.294434	-0.920401	-3.158235
1.533371	0.801998	-0.055763	0.367118	-0.667072	-0.754388	-0.369864	-1.09626	-1.01426	0.541071	-0.350338	0.931804	0.190505	1.900406	-0.417151	-3.119543
1.445437	0.565921	-0.433333	0.128121	-0.649302	-0.658563	-0.341771	-0.995517	-1.165943	0.42205	-0.559479	0.749247	0.336802	2.110399	-0.213608	-3.166486
1.479844	0.5527	-0.498264	0.108224	-1.021499	-1.253703	-0.640315	-1.489368	-1.569695	-0.069106	-1.248198	0.224789	-0.116915	1.700489	-0.630574	-3.194698
1.478075	0.505836	-0.504885	0.117901	-0.849493	-0.854304	-0.490861	-1.117787	-1.534653	0.031824	-1.150411	0.361831	-0.112955	1.827811	-0.579006	-3.213527
1.583585	0.947993	-0.080981	0.500659	-0.689218	-0.500219	-0.426535	-0.815267	-1.28091	0.460706	-0.700784	0.747756	-0.060556	1.889667	-0.507386	-3.194698
1.514954	0.783914	-0.382396	0.294903	-0.746432	-0.470605	-0.418548	-0.713855	-1.161115	0.688425	-0.493792	1.026684	0.528074	2.576537	0.035515	-3.130057
1.576169	0.910664	-0.271842	0.464891	-1.049621	-0.939112	-0.620686	-1.085347	-1.279294	0.541071	-0.633368	0.884357	0.001803	2.083688	-0.352516	-3.298451
1.485335	0.661104	-0.673435	0.128121	-1.235789	-1.297024	-0.766004	-1.331917	-1.280931	0.529365	-0.705438	0.96	0.603545	2.728867	0.191225	-3.204111
1.633353	1.002878	-0.201947	0.52448	-1.066224	-1.081644	-0.596757	-1.09626	-1.123877	0.82007	-0.524986	1.079037	0.495051	2.680828	0.112078	-3.222947
1.557581	0.828418	-0.372613	0.419409	-1.044935	-1.053482	-0.580029	-1.028141	-0.951193	0.965674	-0.370346	1.264064	-0.066051	2.096552	-0.38549	-3.251231
1.674532	1.072929	-0.030526	0.679924	-0.833584	-0.599833	-0.415693	-0.670629	-0.791437	1.126228	-0.176997	1.443445	0.421137	2.617448	0.010117	-3.241799
1.629161	1.036687	-0.059423	0.64124	-0.840252	-0.672375	-0.391574	-0.676096	-0.966602	0.812818	-0.403247	1.189732	0.17878	2.317741	-0.208333	-3.298451
1.711531	1.042938	0.088232	0.746589	-0.717208	-0.416688	-0.275989	-0.43655	-0.705676	1.230972	0.053527	1.537081	0.755146	2.960049	0.380808	-3.194698
1.603075	0.849675	-0.185759	0.493929	-0.85889	-0.818035	-0.37795	-0.812639	-0.890985	0.841628	-0.33497	1.265265	0.382669	2.484988	-0.051348	-3.241799
1.681314	0.922816	-0.003845	0.617212	-0.757409	-0.621011	-0.238486	-0.621022	-0.724463	1.061967	-0.16936	1.406274	0.454334	2.587889	0.00268	-3.261856
1.70168	0.870945	-0.109565	0.575024	-0.599419	-0.485574	-0.153365	-0.545584	-0.638084	1.100519	-0.099687	1.504934	0.846297	3.053215	0.399418	-3.22412
1.790993	1.051659	0.183548	0.785126	-0.45059	-0.158011	-0.004091	-0.255155	-0.711761	0.934111	-0.317508	1.339389	0.64903	2.792154	0.195435	-3.252416
1.881772	1.293634	0.567525	1.108787	-0.471016	-0.20466	0.015401	-0.288552	-0.655402	1.017218	-0.245884	1.410243	0.560646	2.617448	0.082545	-3.394434
1.728878	0.901585	0.057934	0.692382	-0.582816	-0.371563	-0.004091	-0.384444	-0.735166	0.925077	-0.340689	1.269747	0.463896	2.484988	-0.019812	-3.422946
1.724683	0.965317	0.176017	0.743669	-0.546345	-0.436346	-0.00586	-0.403832	-0.632182	1.02301	-0.24582	1.359859	0.358579	2.331375	-0.15033	-3.499156
1.658734	0.845601	-0.048763	0.614229	-0.608824	-0.621011	-0.05745	-0.621022	-0.473487	1.235964	0.013048	1.543033	0.330298	2.296611	-0.217313	-3.527802
1.646045	0.857385	-0.017655	0.62919	-0.596911	-0.532486	-0.066466	-0.553861	-0.655402	0.934111	-0.294393	1.314635	0.155913	2.109315	-0.361291	-3.546919
1.669717	0.851511	-0.033208	0.635255	-0.571161	-0.431239	-0.00981	-0.507375	-0.672699	0.912414	-0.30448	1.266433	0.486518	2.454544	0.003756	-3.489616
1.657038	0.965317	0.068856	0.716534	-0.662742	-0.661201	-0.095244	-0.705573	-0.477513	1.203029	-0.016555	1.473233	0.151585	2.038087	-0.303755	-3.497867
1.755064	1.322635	0.546184	1.061953	-0.492424	-0.326533	0.070669	-0.345484	-0.619258	0.928109	-0.322787	1.197089	0.003415	1.840334	-0.488917	-3.516952
1.839076	1.479219	0.751618	1.235312	-0.605022	-0.596961	-0.051534	-0.679753	-0.652431	0.884819	-0.363205	1.100965	0.725505	2.622026	0.155995	-3.346995
1.711084	1.25819	0.455777	0.999627	-0.745754	-0.741797	-0.168775	-0.841807	-0.403429	1.253251	0.009789	1.402752	0.72863	2.568298	0.115616	-3.356475
1.708474	1.308506	0.503602	1.034736	-0.467033	-0.158011	0.031697	-0.384444	-0.772729	0.645534	-0.583773	0.940181	0.202686	2.072797	-0.364324	-3.365959
1.712055	1.127173	0.285295	0.895528	-0.413326	-0.153397	0.08317	-0.329657	-0.879767	0.476768	-0.806207	0.826142	0.582489	2.504711	0.075823	-3.280748
1.731487	1.012555	0.156658	0.810608	-0.675756	-0.6428	-0.081408	-0.638756	-0.655402	0.792929	-0.381035	1.172612	0.360129	2.261792	-0.21927	-3.346995
1.652798	1.032366	0.146839	0.831996	-0.463586	-0.196215	0.102714	-0.257565	-0.447988	1.12549	-0.156152	1.408951	0.976841	2.903282	0.317188	-3.261856
1.712652	1.193428	0.271695	0.964243	-0.442916	-0.130697	0.094842	-0.208544	-0.252063	1.420439	0.25081	1.781239	0.986554	2.923747	0.302725	-3.288999
1.566741	0.948479	-0.048202	0.698471	-0.450731	-0.216654	0.100385	-0.270795	-0.564177	0.922024	-0.346026	1.268675	1.002905	2.959987	0.317735	-3.356475
1.646865	1.172883	0.213643	0.917976	-0.637944	-0.457147	-0.00777	-0.505412	-0.552758	1.006755	-0.251068	1.286234	0.661814	2.580506	-0.025076	-3.451495
1.635055	1.133472	0.212895	0.920018	-0.529375	-0.356468	0.074589	-0.403832	-0.410146	1.209116	-0.043205	1.502797	0.851442	2.785894	0.221003	-3.413438
1.734608	1.322305	0.371231	1.05678	-0.54763	-0.448797	0.075046	-0.444706	-0.264857	1.374692	0.160764	1.681815	0.876061	2.830816	0.224072	-3.470547
1.637551	1.033939	-0.033208	0.759027	-0.53133	-0.424428	0.122115	-0.350385	-0.250824	1.39252	0.133835	1.639108	0.714827	2.652249	0.032942	-3.596117
1.698477	1.101636	-0.010014	0.839292	-0.582447	-0.340077	0.10519	-0.352662	-0.255827	1.405009	0.068417	1.595157	0.88236	2.83585	0.208658	-3.5578
1.682345	1.069127	0.002903	0.865271	-0.442916	-0.140551	0.244919	-0.12296	-0.207668	1.527459	0.166373	1.720583	0.771514	2.726166	0.176778	-3.548231
1.771356	1.22952	0.162756	1.002284	-0.723263	-0.752684	0.014024	-0.691113	-0.212914	1.485465	0.069078	1.700672	0.746366	2.660867	0.225598	-3.471827
1.751174	1.204315	0.182348	1.029764	-0.563022	-0.516509	0.13171	-0.42733	-0.345203	1.261792	-0.148631	1.462654	0.676689	2.533855	0.096285	-3.519549
1.804447	1.315031	0.248259	1.116449	-0.602397	-0.565484	0.066096	-0.60107	-0.39121	1.203506	-0.146033	1.408294	0.659675	2.506885	-0.007087	-3.567373
1.774977	1.248488	0.176017	1.068208	-0.496388	-0.401443	0.139549	-0.417142	-0.36425	1.149103	-0.226279	1.462045	0.971765	2.904927	0.306442	-3.489616
1.866554	1.501003	0.422373	1.307844	-0.505916	-0.236794	0.159135	-0.185577	0.070662	1.920321	0.575126	2.093476	0.941816	2.921531	0.380018	-3.403934
1.715467	1.024659	-0.160451	0.780309	-0.685179	-0.64151	0.056085	-0.455374	-0.172028	1.578887	0.188247	1.771747	0.817125	2.848596	0.358265	-3.422946
1.945396	1.623452	0.687825	1.433584	-0.389007	-0.003779	0.281899	0.094572	0.002971	1.899998	0.473892	1.985218	0.962167	3.003961	0.518033	-3.441975
1.729869	1.110582	0.079698	0.889719	-0.644888	-0.523263	0.069092	-0.318963	-0.331738	1.33486	-0.128346	1.489461	0.557341	2.496235	0.122765	-3.537359
1.921781	1.54409	0.64913	1.383153	-0.471555	-0.231357	0.18028	-0.048203	-0.422765	1.174219	-0.324781	1.368121	0.168266	2.06396	-0.220565	-3.566053
1.779734	1.147354	0.089534	0.898403	-0.567297	-0.357118	0.128576	-0.139562	-0.212902	1.499394	0.140366	1.616326	0.499447	2.381656	0.096285	-3.413438
1.803259	1.061483	0.048209	0.792182	-0.748131	-0.694117	-0.024815	-0.410054	-0.278682	1.397025	0.039602	1.551638	0.229737	2.127573	-0.17205	-3.413438
1.681571	0.832978	-0.242978	0.543074	-0.940955	-1.139896	-0.165714	-0.803684	-0.610939	0.844295	-0.475535	1.130225	0.511986	2.433664	0.091528	-3.318579
1.910744	1.370401	0.549834	1.150549	-0.493059	-0.216202	0.190565	0.018385	-0.169462	1.555798	0.208888	1.745309	0.706913	2.607487	0.266039	-3.252416
1.896906	1.267873	0.470819	1.07921	-0.43956	-0.242038	0.215045	0.079035	-0.192461	1.490998	0.185808	1.72383	0.558732	2.562645	0.181149	-3.204111
1.94054	1.400005	0.670619	1.238188	-0.381546	0.032851	0.280583	0.279998	-0.31123	1.287086	-0.060678	1.558641	0.417951	2.347454	-0.0195	-3.233548
1.97939	1.333822	0.63995	1.195018	-0.251361	0.219138	0.370762	0.443024	-0.218295	1.47985	0.111084	1.728465	0.811432	2.840414	0.336239	-3.19586
2.005504	1.298127	0.614018	1.19768	-0.348157	0.099579	0.317028	0.384348	0.11839	2.016829	0.716943	2.248624	0.976841	2.997006	0.43164	-3.139446
1.894234	1.07005	0.350045	0.9761	-0.491612	-0.321147	0.200723	-0.017285	-0.338922	1.21229	-0.108169	1.563661	1.193343	3.227065	0.690874	-3.175886
2.044539	1.521997	0.961038	1.421514	-0.238872	0.164768	0.402446	0.366475	0.170696	2.003064	0.614715	2.210346	0.986554	3.017725	0.553932	-3.186448
1.923263	1.244919	0.577469	1.123205	-0.234734	0.124215	0.420771	0.309852	0.155844	1.895265	0.556687	2.180552	0.594321	2.566472	0.112386	-3.346995
2.02242	1.601782	1.003677	1.514251	0.158938	0.893292	0.71487	0.965693	-0.238841	1.306498	-0.000994	1.657116	0.407582	2.306702	-0.082922	-3.403934
1.804447	0.979901	0.162691	0.822945	-0.154957	0.384487	0.510146	0.58726	-0.021064	1.602007	0.384509	1.940903	0.832906	2.715972	0.336239	-3.309115
1.836309	0.981775	0.151761	0.80763	-0.335108	-0.049139	0.369735	0.215126	-0.042784	1.627842	0.356658	1.797403	1.190524	3.086349	0.662714	-3.280748
1.778187	0.897478	0.049752	0.67325	-0.553068	-0.571121	0.184313	-0.25199	-0.372812	1.077231	-0.178278	1.322117	1.097666	2.967274	0.610565	-3.270107
1.800557	0.851249	0.034055	0.607329	-0.42311	-0.302326	0.259174	-0.04384	-0.173323	1.527459	0.292937	1.625956	0.832428	2.63649	0.279213	-3.383697
1.586869	0.474468	-0.551131	0.148816	-0.591235	-0.688255	0.077109	-0.439948	-0.200471	1.534029	0.205739	1.58452	1.604593	3.445973	1.003554	-3.2902
1.790754	0.77916	-0.099278	0.580092	-0.635409	-0.659548	0.031107	-0.448242	-0.449142	1.130512	-0.162832	1.346381	0.953652	2.780777	0.403061	-3.356475
1.801327	0.80886	-0.0124	0.670005	-0.607924	-0.599833	0.030852	-0.355209	-0.393377	1.291301	-0.061558	1.491162	1.165669	3.031041	0.597581	-3.375446
1.796062	0.682929	-0.197109	0.512486	-0.513028	-0.256558	0.155148	0.010374	-0.56489	1.032732	-0.337747	1.324825	0.740157	2.582074	0.246955	-3.318579
1.783432	0.749585	-0.04354	0.690939	-0.596911	-0.397525	0.094842	-0.067028	-0.713388	0.814124	-0.52513	1.157857	0.910203	2.830816	0.388065	-3.280748
1.877652	1.147354	0.39793	1.032553	-0.55684	-0.435463	0.078082	-0.093224	-0.487197	1.133044	-0.125277	1.483913	0.540512	2.425777	0.000819	-3.2902
1.702686	0.864774	0.003299	0.74073	-0.60374	-0.487807	0.029056	-0.216566	-0.334343	1.388859	0.088996	1.69752	0.604579	2.5045	0.002974	-3.318579
1.700098	0.898104	-0.012676	0.759027	-0.561201	-0.470849	0.037088	-0.232524	-0.360084	1.349411	0.014527	1.677489	1.308729	3.25165	0.56719	-3.260667
1.716271	0.795007	-0.032735	0.692289	-0.72411	-0.799648	-0.062928	-0.503575	0.014381	1.915941	0.660206	2.216015	1.363195	3.2696	0.562911	-3.22412
1.788084	0.896161	0.151761	0.862335	-0.42705	-0.196167	0.200093	0.029141	-0.092928	1.692743	0.3407	1.941833	1.065401	2.925276	0.332431	-3.214696
1.777074	1.018625	0.341624	0.974849	-0.55744	-0.576798	0.088126	-0.281885	0.012164	1.828431	0.596887	2.098051	0.983618	2.843943	0.288141	-3.101915
1.810114	1.069127	0.470819	1.060021	-0.499782	-0.476462	0.135285	-0.266041	-0.070137	1.643514	0.485454	1.984217	0.965772	2.770427	0.214417	-3.064448
1.781242	1.090562	0.579065	1.029764	-0.293576	-0.307601	0.24742	-0.113027	-0.094166	1.638372	0.437239	1.891823	1.13478	2.887402	0.321212	-3.028135
1.898186	1.264928	0.752374	1.193386	-0.108596	-0.049139	0.391888	0.108731	-0.146589	1.478873	0.300086	1.815329	1.145982	2.859547	0.310344	-3.083174
1.906627	1.213961	0.730969	1.155784	-0.188548	-0.196167	0.306616	-0.079967	-0.228065	1.355084	0.136941	1.676737	1.05939	2.755897	0.262053	-3.111292
1.811299	1.062943	0.475447	0.953108	-0.407463	-0.653043	0.150317	-0.390938	-0.21159	1.377683	0.163415	1.751743	1.17338	2.919085	0.447305	-3.08206
1.942583	1.335388	0.904577	1.258073	-0.255583	-0.346773	0.248817	-0.14603	-0.178588	1.445652	0.17441	1.852119	1.510711	3.299942	0.755106	-3.055091
1.867991	1.147354	0.638855	1.04883	-0.238968	-0.372923	0.207188	-0.162546	-0.189859	1.457058	0.215877	1.847189	1.305857	3.019924	0.548354	-3.138308
1.916123	1.336441	0.855917	1.215772	-0.226654	-0.334566	0.161362	-0.129947	0.015478	1.913721	0.649749	2.120949	1.545107	3.2528	0.723848	-3.063341
1.735686	1.012555	0.43558	0.914211	-0.351897	-0.578368	0.105818	-0.306893	-0.377708	1.374838	0.019839	1.557304	1.521505	3.227065	0.681722	-3.110166
1.788271	1.13767	0.524876	1.029522	-0.419589	-0.606333	0.034102	-0.327589	-0.324014	1.46631	0.182901	1.640836	1.151826	2.854807	0.465997	-3.138308
1.669717	0.983513	0.301482	0.886785	-0.474128	-0.612045	0.008124	-0.304756	-0.453592	1.29002	-0.032176	1.556624	0.931128	2.637027	0.288141	-3.128924
1.803364	1.222172	0.644818	1.103583	-0.475257	-0.49354	0.020999	-0.216566	-0.114466	1.804646	0.568821	2.06721	1.310523	3.090776	0.664866	-3.128924
1.572756	0.863223	0.079698	0.698471	-0.515538	-0.670911	-0.016783	-0.346886	-0.169462	1.682314	0.423071	2.013289	1.255443	3.015571	0.616676	-3.08206
1.654206	1.087779	0.315634	0.890801	-0.546945	-0.605789	-0.064133	-0.379113	-0.11561	1.802356	0.582849	2.092314	1.116218	2.818987	0.435894	-3.177039
1.627503	1.033939	0.228942	0.862335	-0.543315	-0.706997	-0.058473	-0.394491	-0.583043	1.014987	-0.202851	1.410877	1.04975	2.666777	0.332431	-3.233548
1.658356	1.123765	0.324671	0.928736	-0.60374	-0.787757	-0.131569	-0.560054	-0.507059	1.139487	-0.054742	1.399795	1.059825	2.701248	0.286911	-3.252416
1.539948	0.962142	0.100398	0.759027	-0.539482	-0.706997	-0.047544	-0.472516	-0.71637	0.847539	-0.370539	1.19908	1.133177	2.74077	0.380721	-3.158235
1.667754	1.25021	0.451269	0.994257	-0.436479	-0.495025	0.023116	-0.264579	-0.302638	1.555517	0.266625	1.707314	0.617257	2.253797	0.029502	-3.167635
1.52411	0.913522	0.043313	0.653262	-0.632106	-0.871625	-0.124485	-0.631862	-0.424986	1.394323	0.060129	1.57384	0.559045	2.269527	0.026733	-3.252416
1.671911	1.13583	0.348545	0.939719	-0.491032	-0.64151	-0.05483	-0.43633	-0.592023	1.218482	-0.305371	1.346861	0.190737	1.875175	-0.340468	-3.298451
1.718337	1.112011	0.372129	0.980492	-0.121817	0.170679	0.257788	0.303045	-0.263649	1.748034	0.336762	1.807894	0.745858	2.492954	0.127887	-3.18529
1.75816	1.08434	0.355721	0.873958	-0.355927	-0.316784	0.058869	-0.08699	-0.600422	1.298696	-0.143372	1.413925	0.854571	2.538119	0.217784	-3.08206
1.52411	0.643085	-0.242978	0.41038	-0.68845	-0.910979	-0.190369	-0.612458	-0.739882	1.027304	-0.411084	1.203871	0.796059	2.519326	0.174273	-2.96067
1.722649	1.171128	0.446739	0.936963	-0.360428	-0.29189	0.05097	-0.070233	-0.284979	1.748034	0.380084	1.810739	0.971765	2.715972	0.380018	-2.969984
1.525847	0.765738	-0.130076	0.440884	-0.511737	-0.595029	-0.067558	-0.406476	-0.653912	1.161073	-0.269631	1.294928	1.189153	2.978721	0.612906	-2.997951
1.683115	1.164648	0.357686	0.860867	-0.464197	-0.591567	-0.020732	-0.316296	-0.559832	1.329707	-0.122693	1.413331	0.660409	2.436648	0.068306	-3.130057
1.510743	0.810752	-0.191123	0.450809	-0.713677	-0.990296	-0.196221	-0.66467	-0.53121	1.435681	0.040964	1.501334	0.683662	2.458027	0.125044	-3.130057
1.655724	0.933062	-0.022658	0.623046	-0.704926	-0.811296	-0.181318	-0.501939	-0.633645	1.309973	-0.148416	1.364188	0.966145	2.68653	0.395421	-3.083174
1.508976	0.669635	-0.412513	0.264368	-0.797814	-0.979331	-0.249113	-0.679294	-0.456005	1.606894	0.142052	1.595963	1.047234	2.765976	0.399314	-3.083174
1.773192	1.306459	0.437611	0.991543	-0.48879	-0.371583	-0.016779	-0.172885	-0.270792	1.804654	0.483059	1.816254	0.697438	2.371305	0.126385	-3.035293
1.688471	0.952582	-0.068522	0.559305	-0.67713	-0.787884	-0.149807	-0.538444	-0.439832	1.486718	0.114405	1.597552	1.10339	2.828259	0.46711	-2.979303
1.762256	1.133472	0.161533	0.764965	-0.460667	-0.321941	0.018102	-0.165818	-0.555563	1.399706	-0.053184	1.433235	0.91648	2.57283	0.229257	-3.035293
1.827922	1.276549	0.423751	0.983284	-0.451713	-0.45189	-0.021699	-0.260808	-0.443872	1.507101	0.045315	1.553102	1.054784	2.755118	0.427247	-3.016614
1.792291	1.386233	0.408938	1.002284	-0.43446	-0.316636	-0.001916	-0.24164	-0.212902	1.885269	0.439551	1.90725	1.187693	2.967274	0.556255	-3.007281
1.650049	1.182776	0.177469	0.786286	-0.446542	-0.396525	-0.014984	-0.326548	-0.51792	1.374295	-0.042696	1.457557	0.823719	2.582898	0.192576	-2.979303
1.874115	1.709426	0.868274	1.312565	-0.338807	-0.188231	0.065226	-0.142454	-0.509725	1.364623	0.025368	1.427693	1.147642	2.937568	0.506801	-2.848183
1.662499	1.270014	0.269108	0.822318	-0.430705	-0.401443	0.005063	-0.296784	-0.555563	1.295648	-0.094333	1.362381	0.684644	2.419833	0.097423	-2.895578
1.668103	1.372041	0.383303	0.89626	-0.499205	-0.554328	-0.067558	-0.437696	-0.559244	1.238541	-0.085705	1.377857	0.639944	2.388009	0.034326	-2.969984
1.589274	1.029164	-0.115025	0.509452	-0.650087	-0.886784	-0.234093	-0.798315	-0.433262	1.534749	0.079342	1.569888	0.619791	2.36619	-0.021971	-3.035293
1.676322	1.336779	0.252799	0.823211	-0.51068	-0.432668	-0.085424	-0.381995	-0.838183	0.897353	-0.563151	1.058163	0.257058	1.963633	-0.345213	-3.073809
1.586158	1.070526	-0.089142	0.632232	-0.722461	-0.782204	-0.231397	-0.727492	-0.956617	0.715234	-0.7791	0.919178	0.464212	2.260085	-0.140353	-3.100794
1.597519	1.308182	0.357686	1.029522	-0.587838	-0.431239	-0.137768	-0.420519	-0.897368	0.853962	-0.704981	1.036157	0.503475	2.336434	-0.091279	-3.111292
1.616594	1.393864	0.550548	1.171029	-0.380324	-0.106709	0.023856	-0.042082	-0.884738	0.875779	-0.685582	1.033573	0.238602	2.105729	-0.310113	-3.175886
1.636884	1.507914	0.64913	1.250624	-0.417795	-0.081017	0.026918	0.00433	-0.734277	1.131149	-0.370568	1.31404	0.857432	2.775813	0.266039	-3.128924
1.597519	1.194827	0.178883	0.917976	-0.605022	-0.562058	-0.102157	-0.378578	-0.971945	0.770661	-0.764405	1.036492	0.511721	2.534456	0.073385	-3.204111
1.560821	1.131757	0.065911	0.844795	-0.783668	-0.787884	-0.246369	-0.660701	-0.665328	1.228655	-0.314882	1.505631	0.720796	2.765613	0.202673	-3.24298
1.598617	1.202094	0.148707	0.947871	-0.870237	-0.85745	-0.257265	-0.712736	-0.512424	1.461176	-0.0693	1.717211	0.770844	2.780868	0.236139	-3.2713
1.570129	1.139004	0.051711	0.842053	-0.846454	-0.76446	-0.251828	-0.645846	-0.711761	1.189123	-0.387251	1.437668	0.879347	2.890512	0.388086	-3.24298
1.581002	1.301697	0.371231	1.037315	-0.766891	-0.637295	-0.195906	-0.526666	-0.379357	1.665666	0.187537	1.833637	0.164663	2.034425	-0.369379	-3.213527
1.558227	1.344088	0.329156	0.934002	-0.808423	-0.811296	-0.250452	-0.683001	-0.39437	1.565129	0.147248	1.710103	0.623707	2.449368	-0.045355	-3.016614
1.609837	1.351258	0.392318	0.928736	-0.680111	-0.621011	-0.142924	-0.538444	-0.619258	1.136006	-0.236272	1.437668	0.468437	2.215959	-0.246853	-2.979303
1.539119	1.315829	0.269168	0.793475	-0.530028	-0.46097	-0.087245	-0.446527	-0.503265	1.312741	-0.029684	1.649794	0.746895	2.528844	-0.033363	-2.877015
1.519974	1.195339	0.097784	0.706895	-0.530028	-0.500873	-0.083255	-0.391134	-0.578668	1.16983	-0.182134	1.555239	1.027421	2.800109	0.210668	-2.877015
1.537531	1.287449	0.271695	0.839292	-0.483974	-0.341685	-0.04556	-0.221907	-0.749285	0.940573	-0.49629	1.295443	0.928915	2.711302	0.115616	-2.942053
1.453212	0.889507	-0.134944	0.48758	-0.471794	-0.321566	-0.061426	-0.156204	-0.512424	1.440819	-0.020282	1.714602	0.919546	2.780777	0.155995	-2.96067
1.51328	0.918177	-0.058314	0.541704	-0.516978	-0.401375	-0.070343	-0.244787	-0.649495	1.228655	-0.251092	1.553102	0.377622	2.193672	-0.35475	-3.08206
1.491598	0.996564	0.054081	0.653262	-0.522693	-0.462442	-0.118222	-0.290875	-0.568753	1.346245	-0.151073	1.670436	0.780681	2.666777	0.028187	-3.007281
1.521572	1.096704	0.164753	0.749489	-0.503019	-0.424428	-0.098701	-0.236027	-0.591739	1.397025	-0.199817	1.698319	0.928915	2.850776	0.118906	-3.072699
1.524127	1.096704	0.134454	0.803738	-0.523173	-0.41355	-0.07561	-0.199147	-0.339132	1.776329	0.146763	2.028154	1.151826	3.170207	0.380018	-3.045737
1.563406	1.195727	0.220554	0.888042	-0.569328	-0.348302	-0.076772	-0.209537	-0.315404	1.872285	0.237252	2.09463	1.087038	3.096046	0.306606	-3.110166
1.560203	1.095168	0.130986	0.840865	-0.481369	-0.266975	0.012133	-0.03684	-0.355486	1.839673	0.102042	1.978057	1.253754	3.265155	0.490452	-3.053988
1.672216	1.066535	0.135879	0.843782	-0.603047	-0.495025	-0.084884	-0.322567	-0.368164	1.679554	0.008399	1.900116	1.145982	3.130865	0.358265	-3.083174
1.618856	1.115506	0.172567	0.837929	-0.322567	-0.03927	0.122998	0.105604	-0.504425	1.50187	-0.128697	1.713717	0.807978	2.720981	0.070539	-3.083174
1.555107	1.131757	0.108929	0.776603	-0.360176	-0.221292	0.064056	-0.053516	-0.448184	1.557949	0.037204	1.829736	0.694774	2.553339	-0.037809	-3.064448
1.477381	0.997587	-0.048763	0.584214	-0.422219	-0.336578	-0.018716	-0.251096	-0.473487	1.486718	-0.025195	1.787818	0.722482	2.55848	-0.007929	-3.055091
1.628652	1.231151	0.290108	0.871868	-0.513339	-0.466073	-0.072342	-0.368445	-0.571544	1.368908	-0.125277	1.694243	0.771074	2.60221	0.072249	-3.017701
1.607953	1.23779	0.25765	0.858068	-0.629326	-0.645045	-0.163563	-0.47595	-0.832233	0.999209	-0.627147	1.298815	0.570593	2.433664	-0.109164	-3.101915
1.812572	1.619898	0.803091	1.31951	-0.347124	0.060696	0.097974	0.211448	-0.396917	1.717404	0.207897	2.000955	0.518622	2.404055	-0.127025	-3.064448
1.620393	1.187536	0.238604	0.816502	-0.54673	-0.366507	-0.05348	-0.136357	-0.675706	1.258836	-0.367775	1.60643	0.488462	2.433664	-0.02737	-3.073809
1.683142	1.478447	0.610536	1.116449	-0.598665	-0.454251	-0.115358	-0.199147	-0.779113	1.187079	-0.48325	1.468806	0.336263	2.412307	-0.039954	-3.157089
1.612491	1.159618	0.124839	0.797999	-0.451713	-0.180885	-0.029658	-0.020614	-0.381934	1.849929	0.178226	2.008281	1.086087	3.204864	0.64588	-3.128924
1.782243	1.464111	0.54219	1.123942	-0.472075	-0.201156	-0.043561	-0.037488	-0.603384	1.513895	-0.210898	1.705882	0.538518	2.643816	0.112386	-3.252416
1.7294	1.322928	0.362223	1.002284	-0.450913	-0.106709	0.015989	0.033637	-0.668251	1.335301	-0.302241	1.579758	0.75472	2.885991	0.332431	-3.24298
1.854495	1.641218	0.751618	1.346831	-0.131515	0.538003	0.299346	0.569252	-0.464121	1.67444	0.039602	1.866878	0.602849	2.670374	0.13559	-3.260667
1.638048	1.130306	0.161533	0.846678	-0.472766	-0.165944	0.054014	-0.093381	-0.577226	1.44799	-0.156152	1.650562	0.774035	2.820821	0.336239	-3.204111
1.805695	1.528485	0.65342	1.255467	-0.113364	0.467423	0.297387	0.432816	-0.436048	1.656386	0.066545	1.872142	1.266772	3.334308	0.742947	-3.147697
1.647763	1.145681	0.129658	0.830892	-0.3598	-0.076291	0.102714	-0.048203	-0.680281	1.230608	-0.334528	1.487685	0.753655	2.725211	0.231731	-3.241799
1.806875	1.492242	0.644693	1.208054	-0.284818	0.130809	0.170644	0.109361	-0.816716	1.024106	-0.573254	1.299263	0.686937	2.606684	0.173634	-3.158235
1.60536	1.067475	0.094417	0.797999	-0.505161	-0.321566	0.019926	-0.247953	-0.883548	0.987025	-0.603726	1.225453	0.335124	2.153476	-0.188091	-3.232371
1.724012	1.159618	0.232015	0.882467	-0.651562	-0.492152	-0.091241	-0.42733	-1.000691	0.775244	-0.844994	1.038601	0.560671	2.463296	0.044812	-3.130057
1.610536	0.951634	-0.048026	0.66501	-0.33901	0.130776	0.088644	0.089202	-0.533962	1.566192	-0.022093	1.79229	0.579147	2.517415	0.096285	-3.148838
1.715833	1.329976	0.430087	1.078853	-0.644166	-0.378269	-0.159082	-0.33651	-0.771565	1.214645	-0.284065	1.502797	0.602849	2.531381	0.132671	-3.177039
1.551836	0.916757	-0.19633	0.613677	-0.90935	-0.840063	-0.359295	-0.786845	-0.870791	1.086008	-0.491814	1.341125	0.197798	2.06396	-0.25088	-3.205276
1.793557	1.429277	0.516089	1.163492	-0.670252	-0.256558	-0.165305	-0.215632	-0.776038	1.29021	-0.207447	1.575366	0.069334	1.981279	-0.361291	-3.204111
1.738994	1.272742	0.351045	0.980492	-0.677806	-0.202281	-0.167132	-0.174342	-1.073416	0.817428	-0.638049	1.127665	-0.251002	1.661446	-0.674663	-3.241799
1.816011	1.606255	0.773237	1.367354	-0.693928	-0.302064	-0.198582	-0.268801	-1.137442	0.687553	-0.78207	1.036492	0.413211	2.334147	-0.093757	-3.064448
1.532412	1.14501	0.068856	0.81942	-0.788073	-0.578368	-0.32385	-0.524438	-1.142324	0.634231	-0.779594	1.009815	0.45367	2.403665	-0.104664	-3.101915
1.639711	1.251839	0.215858	0.909705	-0.649302	-0.281733	-0.222446	-0.313201	-0.959005	0.906451	-0.472737	1.290515	0.876061	2.870886	0.266039	-3.072699
1.465759	0.803276	-0.354438	0.474635	-0.864912	-0.666663	-0.380721	-0.646843	-0.890985	1.061076	-0.446462	1.411502	0.623707	2.597409	0.089999	-3.08206
1.421437	1.069543	0.086562	0.812199	-0.743774	-0.436346	-0.250952	-0.316367	-0.767167	1.43826	-0.266217	1.54627	1.194264	3.21445	0.635623	-3.24298
1.395189	0.921668	0.017788	0.707593	-0.620295	-0.191312	-0.153365	-0.085306	-0.647137	1.78315	-0.098768	1.659149	0.913403	2.945636	0.440008	-3.441975
1.407236	1.028946	0.240926	0.823211	-0.878156	-0.659548	-0.319778	-0.463799	-0.436996	2.072637	0.239058	1.962663	0.733749	2.720981	0.365897	-3.480079
1.437932	1.021353	0.348545	0.939719	-0.521512	-0.130697	-0.085186	-0.045133	-0.279583	2.285826	0.518634	2.165024	0.476724	2.442038	0.143262	-3.499156
1.526297	1.209596	0.567788	1.06957	-0.551461	-0.216202	-0.046534	-0.162594	-0.389372	2.031996	0.309418	2.019389	0.516661	2.425033	0.111396	-3.413438
1.529002	1.070311	0.416441	0.969693	-0.305559	0.166197	0.133233	0.147626	-0.325277	2.043288	0.371065	2.126624	1.246354	3.167129	0.697839	-3.346995
1.724581	1.412384	0.911904	1.39705	-0.173328	0.322875	0.263121	0.264195	-0.250824	2.164665	0.523723	2.22205	1.137628	2.992476	0.568082	-3.318579
1.67488	1.23829	0.739475	1.213245	-0.234909	0.161647	0.225425	0.117725	-0.383234	1.878427	0.246046	1.933189	1.334581	3.218723	0.633884	-3.22412
1.736493	1.341913	0.854639	1.271835	-0.556284	-0.596961	-0.022702	-0.576285	-0.353309	1.835576	0.249081	2.013289	1.400721	3.255983	0.669516	-3.073809
1.657254	1.343563	0.80459	1.195877	-0.343227	-0.321566	0.103517	-0.368176	-0.580118	1.46813	-0.099572	1.653555	1.449123	3.265708	0.652853	-3.138308
1.735401	1.440988	1.015824	1.346831	-0.318047	-0.332011	0.105018	-0.400751	-0.722968	1.28469	-0.294897	1.459529	0.842252	2.543222	0.093216	-3.19586
1.61398	1.084189	0.571195	0.977725	-0.384982	-0.401443	0.022978	-0.426448	-0.727086	1.367169	-0.195167	1.521095	0.799811	2.534456	0.018845	-3.318579
1.688147	1.244575	0.713409	1.07702	-0.42741	-0.392261	-0.00777	-0.423914	-0.59661	1.616485	0.052802	1.759397	0.854602	2.647032	0.166904	-3.177039
1.673333	1.189163	0.622929	1.029522	-0.448571	-0.367616	-0.04859	-0.352456	-0.852668	1.200372	-0.355157	1.450475	0.731656	2.509937	-0.035162	-3.214696
1.655259	1.313528	0.635789	1.057273	-0.717932	-1.022247	-0.292795	-0.858064	-0.897168	1.211891	-0.490523	1.338191	0.654141	2.449368	-0.012284	-3.073809
1.538377	1.217187	0.467951	0.97239	-0.746502	-1.018984	-0.315712	-0.882082	-1.063252	0.952749	-0.797077	1.131764	0.658506	2.442038	-0.116914	-3.101915
1.611022	1.37629	0.657232	1.111356	-0.621229	-0.685091	-0.223613	-0.578035	-0.99131	1.044964	-0.61754	1.219492	0.623179	2.390464	-0.124695	-3.111292
1.49263	0.972373	0.083423	0.704031	-0.688844	-0.747404	-0.273616	-0.650368	-0.945093	1.092347	-0.570019	1.192138	0.633122	2.488002	-0.164077	-3.130057
1.502159	1.091452	0.185727	0.696823	-0.754415	-0.834756	-0.303705	-0.712736	-1.057258	0.926966	-0.725706	1.05141	0.313214	2.105944	-0.411268	-3.147697
1.480384	1.133008	0.232015	0.779464	-0.592599	-0.580894	-0.2071	-0.526488	-0.980751	1.008378	-0.59316	1.197089	0.471804	2.226919	-0.266718	-3.008363
1.464424	1.133184	0.209018	0.793475	-0.614864	-0.578368	-0.224567	-0.553861	-1.160762	0.685942	-0.864877	0.915517	0.431541	2.165118	-0.388217	-3.044639
1.453673	1.147136	0.143979	0.758074	-0.522256	-0.476392	-0.167583	-0.504021	-0.960593	0.983578	-0.560361	1.244061	0.459585	2.16973	-0.449966	-2.969984
1.449893	0.994103	-0.025788	0.58678	-0.760558	-1.008062	-0.341669	-0.918989	-1.105538	0.736341	-0.811876	1.036819	0.42672	2.096552	-0.397387	-2.850216
1.452169	0.999905	0.048209	0.695324	-0.588295	-0.500873	-0.167583	-0.574664	-1.076749	0.697416	-0.802797	1.104218	0.436397	2.127573	-0.410727	-2.895578
1.526336	1.188978	0.273711	0.882563	-0.564972	-0.532486	-0.156268	-0.572795	-1.049995	0.744061	-0.800121	1.009016	0.541969	2.182344	-0.340716	-2.933802
1.566696	1.203179	0.304284	0.888042	-0.322224	-0.092753	0.036967	-0.300728	-0.940453	0.940031	-0.602575	1.149691	0.478099	2.110685	-0.401057	-2.914156
1.467022	0.978248	0.110244	0.716534	-0.234625	0.104458	0.101875	-0.154402	-0.847547	1.078436	-0.430062	1.26757	0.73285	2.458027	-0.19314	-2.812164
1.59072	1.384603	0.644693	1.131268	-0.213779	0.021284	0.092564	-0.291568	-0.909645	0.965674	-0.466625	1.168813	0.88236	2.57283	-0.090458	-2.646264
1.423996	1.083407	0.212895	0.800878	-0.360428	-0.271475	-0.041647	-0.507375	-0.892643	0.987604	-0.459407	1.193294	0.304728	1.910622	-0.547797	-2.637083
1.527692	1.329378	0.546184	1.096746	-0.390152	-0.216202	-0.060628	-0.465708	-0.877118	1.119986	-0.383676	1.312206	0.757968	2.473746	-0.18392	-2.617812
1.531718	1.21016	0.421012	0.945173	-0.297637	-0.100289	-0.011752	-0.303211	-0.515387	1.744424	0.176394	1.851501	1.124366	2.914394	0.212171	-2.591236
1.606605	1.378414	0.687663	1.151159	-0.393768	-0.311665	-0.084321	-0.433063	-1.033118	1.017218	-0.716949	1.17647	0.301676	2.105729	-0.519352	-2.775191
1.392283	0.837764	-0.124722	0.547972	-0.255534	0.055415	0.019032	-0.111409	-0.624553	1.690606	-0.011832	1.757511	0.928915	2.890512	0.151737	-2.775191
1.542259	1.322083	0.50796	1.094246	-0.535163	-0.357118	-0.149807	-0.413786	-0.938883	1.209116	-0.565952	1.365353	0.335124	2.30263	-0.356424	-3.007281
1.394853	0.907999	-0.073727	0.623046	-1.000379	-1.158833	-0.4828	-1.088587	-1.009805	1.186791	-0.664214	1.270271	0.712722	2.775873	0.104886	-2.951359
1.555739	1.356787	0.452387	1.091728	-0.838517	-0.770224	-0.344313	-0.749683	-1.048376	1.12833	-0.681955	1.223597	0.300454	2.306702	-0.266718	-3.025952
1.504849	1.111989	0.129658	0.825195	-0.740707	-0.61566	-0.260188	-0.60719	-1.236138	0.845066	-1.026435	0.942054	0.475158	2.576903	-0.043947	-2.979303
1.708258	1.602117	0.799001	1.39705	-0.52968	-0.181615	-0.100039	-0.209433	-0.90519	1.288838	-0.547102	1.334407	0.479282	2.518034	-0.093757	-3.063341
1.52229	1.203179	0.206398	0.906909	-0.396952	0.03848	0.016864	0.007716	-0.668465	1.64458	-0.126258	1.712825	0.677077	2.735581	0.038821	-3.035293
1.624124	1.377819	0.447971	1.116449	-0.517597	-0.120992	-0.05745	-0.134441	-0.747118	1.468848	-0.319733	1.549384	0.547279	2.526066	-0.055782	-3.035293
1.533023	1.112214	0.07859	0.800878	-0.589339	-0.150555	-0.107293	-0.126858	-0.649845	1.618834	-0.126258	1.616326	0.717528	2.691076	-0.004787	-3.007281
1.512856	0.958627	-0.099577	0.614229	-0.85883	-0.787884	-0.333444	-0.705573	-1.034744	0.952822	-0.702539	1.081202	0.87625	2.84524	0.188327	-2.849199
1.555739	0.964508	0.023493	0.653262	-0.621229	-0.326533	-0.155543	-0.368176	-0.937322	1.075593	-0.513736	1.266433	0.699922	2.567752	-0.032661	-2.765958
1.622387	1.217187	0.42556	0.947871	-0.504576	-0.227713	-0.120776	-0.294603	-1.206211	0.642246	-0.994915	0.871895	0.560671	2.438928	-0.130432	-2.822423
1.570446	1.308309	0.472485	0.999627	-0.384427	-0.048691	-0.032838	-0.104943	-1.020412	0.921206	-0.689361	1.170489	0.506884	2.447398	-0.149979	-2.951359
1.581175	1.272784	0.392318	0.928736	-0.376352	0.064625	-0.05348	-0.027109	-0.916337	1.10312	-0.496339	1.374901	0.674929	2.641611	0.126818	-3.007281
1.579974	1.098301	0.225227	0.755232	-0.558755	-0.356468	-0.169299	-0.339096	-1.07885	0.967669	-0.762614	1.194968	0.722972	2.730411	0.133833	-3.072699
1.613382	1.154175	0.260014	0.814981	-0.716635	-0.586211	-0.27636	-0.565876	-1.086955	0.949791	-0.829406	1.22262	0.476724	2.501575	-0.081253	-3.007281
1.484718	1.013691	0.079698	0.680417	-0.756732	-0.738157	-0.284651	-0.65179	-1.25023	0.670686	-1.084468	1.038326	0.736959	2.79089	0.050352	-2.914156
1.470023	1.175161	0.374198	0.888042	-0.595548	-0.341685	-0.142505	-0.310055	-0.903319	1.16983	-0.471211	1.577598	0.799102	2.898651	0.147602	-2.802915
1.480726	1.364184	0.558723	1.108787	-0.579295	-0.42617	-0.146476	-0.313201	-0.985068	0.937081	-0.677238	1.360501	0.879347	2.950449	0.123099	-2.868764
1.439281	1.16784	0.201985	0.850222	-0.709298	-0.607863	-0.240987	-0.531401	-0.7201	1.425425	-0.205615	1.732861	0.736119	2.825751	-0.012284	-2.988625
1.428464	1.133242	0.143979	0.863646	-0.591687	-0.286629	-0.110925	-0.186514	-0.738652	1.369696	-0.26139	1.662757	0.894821	2.975668	0.185124	-2.988625
1.46199	0.917474	-0.084767	0.674137	-0.784511	-0.554328	-0.198689	-0.306893	-0.688461	1.412813	-0.258599	1.737477	0.786682	2.885649	0.126818	-2.997951
1.484718	1.021353	0.068856	0.825195	-0.861391	-0.80566	-0.280419	-0.609256	-0.643721	1.53011	-0.181834	1.864142	0.906712	3.008577	0.181189	-2.951359
1.48609	0.993758	0.057934	0.749489	-0.927359	-0.956554	-0.347308	-0.757862	-0.799274	1.205403	-0.464364	1.581159	0.786866	2.850038	0.097665	-2.923451
1.587936	1.293255	0.447971	1.091728	-0.665422	-0.489497	-0.134393	-0.327589	-0.632182	1.431495	-0.218235	1.774197	1.070427	3.093753	0.264738	-2.877015
1.543758	1.237309	0.422373	1.037315	-0.606141	-0.497481	-0.081408	-0.280674	-0.591739	1.496447	-0.20503	1.746964	0.879196	2.7905	0.003402	-2.858467
1.553219	1.174964	0.348545	1.002284	-0.384982	0.090801	0.12073	0.156507	-0.489621	1.571268	-0.087247	1.834594	1.096757	3.005724	0.09399	-2.877015
1.593493	1.320968	0.550548	1.118966	-0.527007	-0.316784	0.032079	-0.113286	-0.438501	1.620236	0.023991	1.93418	0.786214	2.666321	-0.099165	-2.858467
1.566698	1.27963	0.528507	1.11136	-0.573099	-0.527122	-0.060628	-0.359271	-0.609088	1.307184	-0.21519	1.647444	0.88236	2.701248	-0.040806	-2.839934
1.473983	1.063493	0.308975	0.885264	-0.55684	-0.607863	-0.056609	-0.441191	-0.653912	1.180244	-0.293036	1.603597	0.68217	2.430204	-0.231342	-2.757707
1.545014	1.369591	0.674913	1.146224	-0.423494	-0.397525	-0.005814	-0.280674	-0.60346	1.292939	-0.192072	1.596761	0.659675	2.374472	-0.337169	-2.775191
1.470023	1.237309	0.494821	1.010139	-0.460274	-0.441489	-0.062466	-0.368445	-0.525806	1.410231	-0.048175	1.738377	0.802133	2.489961	-0.229883	-2.655448
1.523572	1.334436	0.606252	1.06705	-0.489556	-0.45189	-0.125118	-0.345719	-0.791687	1.066944	-0.423063	1.43257	0.471804	2.133142	-0.580578	-2.72081
1.550202	1.119233	0.362223	0.898961	-0.568755	-0.527122	-0.172818	-0.404681	-0.819992	1.025875	-0.470051	1.38206	0.600932	2.245469	-0.447594	-2.72081
1.508855	1.161127	0.476997	0.97239	-0.552488	-0.467776	-0.165952	-0.366167	-0.841512	1.042059	-0.539777	1.338191	0.737511	2.478927	-0.226815	-2.674774
1.539495	1.348646	0.666161	1.151159	-0.397484	-0.156169	-0.046534	-0.077549	-0.866147	1.141868	-0.556559	1.387837	0.471804	2.304563	-0.347109	-2.757707
1.381579	1.188978	0.32291	0.888042	-0.534709	-0.51126	-0.170436	-0.397868	-1.115485	0.729658	-0.974977	1.060678	0.434995	2.309985	-0.37989	-2.831683
1.389702	1.021953	0.051711	0.704031	-0.580675	-0.527122	-0.189364	-0.430765	-0.959005	0.968426	-0.681369	1.317491	0.49519	2.312252	-0.334963	-2.905905
1.412217	1.133242	0.159998	0.833712	-0.605022	-0.546094	-0.2071	-0.449942	-0.975959	0.915856	-0.669892	1.292786	0.488389	2.336434	-0.317388	-2.924499
1.495457	1.216794	0.255403	0.923394	-0.688844	-0.666663	-0.253186	-0.59764	-0.994482	0.863438	-0.699688	1.245659	0.360126	2.200598	-0.449966	-2.971052
1.553219	1.3006	0.439073	1.059376	-0.706411	-0.822684	-0.269544	-0.712736	-0.870791	1.074026	-0.50014	1.437668	0.740157	2.666321	-0.02595	-2.924499
1.597484	1.196078	0.32291	0.975067	-0.568755	-0.631829	-0.182203	-0.575223	-0.640885	1.368908	-0.16902	1.718912	0.55225	2.480031	-0.246853	-3.016614
1.596257	1.244933	0.369613	1.029522	-0.456362	-0.457147	-0.087738	-0.422062	-0.746215	1.205403	-0.481181	1.487685	0.872895	2.770728	0.00575	-3.016614
