fnirSoft:	Exported Text File
Version:	4.2
ExportDate:	12/18/2023 12:00:36 PM
VariableInfo
Name:	oxygraph4.oxy.Time1
Size:	2036 x 1
Type:	Numeric
Content:	Time
Date:	12/18/2023 12:00:25 PM
Notes:	Time saved by Oxygraph from file C:\Users\Anette Johansson\Documents\COBI Studio Data\LRV patienter\0003p_group1_R\FILIPPA_0003p_1_01181508.oxy
Labels:	OXY	TIME
VariableData
Time

126.619
127.131
127.641
128.151
128.661
129.171
129.68
130.19
130.7
131.21
131.72
132.23
132.74
133.25
133.76
134.27
134.78
135.29
135.8
136.31
136.82
137.33
137.84
138.35
138.86
139.37
139.88
140.39
140.9
141.41
141.92
142.43
142.94
143.45
143.96
144.47
144.98
145.49
146
146.51
147.019
147.529
148.039
148.549
149.059
149.569
150.079
150.589
151.099
151.609
152.119
152.629
153.139
153.649
154.159
154.669
155.179
155.689
156.199
156.709
157.219
157.729
158.239
158.749
159.259
159.769
160.279
160.789
161.299
161.809
162.319
162.829
163.339
163.849
164.359
164.868
165.378
165.888
166.398
166.908
167.418
167.928
168.438
168.948
169.458
169.968
170.478
170.988
171.498
172.008
172.518
173.028
173.538
174.048
174.558
175.068
175.578
176.088
176.598
177.108
177.618
178.128
178.638
179.148
179.658
180.168
180.678
181.188
181.698
182.207
182.717
183.227
183.737
184.247
184.757
185.267
185.777
186.287
186.797
187.307
187.817
188.327
188.837
189.347
189.857
190.367
190.877
191.387
191.897
192.407
192.917
193.427
193.937
194.447
194.957
195.467
195.977
196.487
196.997
197.507
198.017
198.526
199.036
199.546
200.056
200.566
201.076
201.586
202.096
202.606
203.116
203.626
204.136
204.646
205.156
205.666
206.176
206.686
207.196
207.706
208.216
208.726
209.236
209.746
210.256
210.766
211.276
211.786
212.296
212.806
213.316
213.826
214.336
214.846
215.356
215.866
216.375
216.885
217.395
217.905
218.415
218.925
219.435
219.945
220.455
220.965
221.475
221.985
222.495
223.005
223.515
224.025
224.535
225.045
225.555
226.065
226.575
227.085
227.595
228.105
228.615
229.125
229.635
230.145
230.655
231.165
231.675
232.185
232.695
233.205
233.715
234.224
234.734
235.244
235.754
236.264
236.774
237.284
237.794
238.304
238.814
239.324
239.834
240.344
240.854
241.364
241.874
242.384
242.894
243.404
243.914
244.424
244.934
245.444
245.954
246.464
246.974
247.484
247.994
248.504
249.014
249.524
250.034
250.543
251.054
251.564
252.073
252.583
253.093
253.603
254.113
254.623
255.133
255.643
256.153
256.663
257.173
257.683
258.193
258.703
259.213
259.723
260.233
260.743
261.253
261.763
262.273
262.783
263.293
263.803
264.313
264.823
265.333
265.843
266.353
266.863
267.373
267.883
268.392
268.902
269.412
269.922
270.432
270.942
271.452
271.962
272.472
272.982
273.492
274.002
274.512
275.022
275.532
276.042
276.552
277.062
277.572
278.082
278.592
279.102
279.612
280.122
280.632
281.142
281.652
282.162
282.672
283.182
283.692
284.202
284.712
285.222
285.731
286.241
286.751
287.261
287.771
288.281
288.791
289.301
289.811
290.321
290.831
291.341
291.851
292.361
292.871
293.381
293.891
294.401
294.911
295.421
295.931
296.441
296.951
297.461
297.971
298.481
298.991
299.501
300.011
300.521
301.031
301.541
302.051
302.561
303.071
303.58
304.09
304.6
305.11
305.62
306.13
306.64
307.15
307.66
308.17
308.68
309.19
309.7
310.21
310.72
311.23
311.74
312.25
312.76
313.27
313.78
314.29
314.8
315.31
315.82
316.33
316.84
317.35
317.86
318.37
318.88
319.39
319.9
320.41
320.919
321.429
321.939
322.449
322.959
323.469
323.979
324.489
324.999
325.509
326.019
326.529
327.039
327.549
328.059
328.569
329.079
329.589
330.099
330.609
331.119
331.629
332.139
332.649
333.159
333.669
334.179
334.689
335.199
335.709
336.219
336.729
337.239
337.749
338.259
338.768
339.278
339.788
340.298
340.808
341.318
341.828
342.338
342.848
343.358
343.868
344.378
344.888
345.398
345.908
346.418
346.928
347.438
347.948
348.458
348.968
349.478
349.988
350.498
351.008
351.518
352.028
352.538
353.048
353.558
354.068
354.578
355.088
355.598
356.107
356.617
357.127
357.637
358.147
358.657
359.167
359.677
360.187
360.697
361.207
361.717
362.227
362.737
363.247
363.757
364.267
364.777
365.287
365.797
366.307
366.817
367.327
367.837
368.347
368.857
369.367
369.877
370.387
370.897
371.407
371.917
372.427
372.936
373.446
373.956
374.466
374.976
375.486
375.996
376.506
377.016
377.526
378.036
378.546
379.056
379.566
380.076
380.586
381.096
381.606
382.116
382.626
383.136
383.646
384.156
384.666
385.176
385.686
386.196
386.706
387.216
387.726
388.236
388.746
389.256
389.766
390.276
390.785
391.295
391.805
392.315
392.825
393.335
393.845
394.355
394.865
395.375
395.885
396.395
396.905
397.415
397.925
398.435
398.945
399.455
399.965
400.475
400.985
401.495
402.005
402.515
403.025
403.535
404.045
404.555
405.065
405.575
406.085
406.595
407.105
407.614
408.124
408.634
409.144
409.654
410.164
410.674
411.184
411.694
412.204
412.714
413.224
413.734
414.244
414.754
415.264
415.774
416.284
416.794
417.304
417.814
418.324
418.834
419.344
419.854
420.364
420.874
421.384
421.894
422.404
422.914
423.424
423.934
424.443
424.953
425.463
425.973
426.483
426.993
427.503
428.013
428.523
429.033
429.543
430.053
430.563
431.073
431.583
432.093
432.603
433.113
433.623
434.133
434.643
435.153
435.663
436.173
436.683
437.193
437.703
438.213
438.723
439.233
439.743
440.253
440.763
441.273
441.783
442.292
442.802
443.312
443.822
444.332
444.842
445.352
445.862
446.372
446.882
447.392
447.902
448.412
448.922
449.432
449.942
450.452
450.962
451.472
451.982
452.492
453.002
453.512
454.022
454.532
455.042
455.552
456.062
456.572
457.082
457.592
458.102
458.612
459.122
459.631
460.142
460.651
461.161
461.671
462.181
462.691
463.201
463.711
464.221
464.731
465.241
465.751
466.261
466.771
467.281
467.791
468.301
468.811
469.321
469.831
470.341
470.851
471.361
471.871
472.381
472.891
473.401
473.911
474.421
474.931
475.441
475.951
476.461
476.971
477.48
477.99
478.5
479.01
479.52
480.03
480.54
481.05
481.56
482.07
482.58
483.09
483.6
484.11
484.62
485.13
485.64
486.15
486.66
487.17
487.68
488.19
488.7
489.21
489.72
490.23
490.74
491.25
491.76
492.27
492.78
493.29
493.8
494.31
494.819
495.329
495.839
496.349
496.859
497.369
497.879
498.389
498.899
499.409
499.919
500.429
500.939
501.449
501.959
502.469
502.979
503.489
503.999
504.509
505.019
505.529
506.039
506.549
507.059
507.569
508.079
508.589
509.099
509.609
510.119
510.629
511.139
511.649
512.158
512.668
513.178
513.688
514.198
514.708
515.218
515.728
516.238
516.748
517.258
517.768
518.278
518.788
519.298
519.808
520.318
520.828
521.338
521.848
522.358
522.868
523.378
523.888
524.398
524.908
525.418
525.928
526.438
526.948
527.458
527.968
528.478
528.988
529.498
530.007
530.517
531.027
531.537
532.047
532.557
533.067
533.577
534.087
534.597
535.107
535.617
536.127
536.637
537.147
537.657
538.167
538.677
539.187
539.697
540.207
540.717
541.227
541.737
542.247
542.757
543.267
543.777
544.287
544.797
545.307
545.817
546.327
546.837
547.346
547.856
548.366
548.876
549.386
549.896
550.406
550.916
551.426
551.936
552.446
552.956
553.466
553.976
554.486
554.996
555.506
556.016
556.526
557.036
557.546
558.056
558.566
559.076
559.586
560.096
560.606
561.116
561.626
562.136
562.646
563.156
563.666
564.175
564.685
565.195
565.705
566.215
566.725
567.235
567.745
568.255
568.765
569.275
569.785
570.295
570.805
571.315
571.825
572.335
572.845
573.355
573.865
574.375
574.885
575.395
575.905
576.415
576.925
577.435
577.945
578.455
578.965
579.475
579.985
580.495
581.005
581.515
582.024
582.534
583.044
583.554
584.064
584.574
585.084
585.594
586.104
586.614
587.124
587.634
588.144
588.654
589.164
589.674
590.184
590.694
591.204
591.714
592.224
592.734
593.244
593.754
594.264
594.774
595.284
595.794
596.304
596.814
597.324
597.834
598.344
598.854
599.363
599.873
600.383
600.893
601.403
601.913
602.423
602.933
603.443
603.953
604.463
604.973
605.483
605.993
606.503
607.013
607.523
608.033
608.543
609.053
609.563
610.073
610.583
611.093
611.603
612.113
612.623
613.133
613.643
614.153
614.663
615.173
615.683
616.193
616.702
617.212
617.722
618.232
618.742
619.252
619.762
620.272
620.782
621.292
621.802
622.312
622.822
623.332
623.842
624.352
624.862
625.372
625.882
626.392
626.902
627.412
627.922
628.432
628.942
629.452
629.962
630.472
630.982
631.492
632.002
632.512
633.022
633.532
634.041
634.551
635.061
635.571
636.081
636.591
637.101
637.611
638.121
638.631
639.141
639.651
640.161
640.671
641.181
641.691
642.201
642.711
643.221
643.731
644.241
644.751
645.261
645.771
646.281
646.791
647.301
647.811
648.321
648.831
649.341
649.851
650.361
650.871
651.38
651.89
652.4
652.91
653.42
653.93
654.44
654.95
655.46
655.97
656.48
656.99
657.5
658.01
658.52
659.03
659.54
660.05
660.56
661.07
661.58
662.09
662.6
663.11
663.62
664.13
664.64
665.15
665.66
666.17
666.68
667.19
667.7
668.21
668.719
669.229
669.739
670.249
670.759
671.269
671.779
672.289
672.799
673.309
673.819
674.329
674.839
675.349
675.859
676.369
676.879
677.389
677.899
678.409
678.919
679.429
679.939
680.449
680.959
681.469
681.979
682.489
682.999
683.509
684.019
684.529
685.039
685.549
686.059
686.568
687.078
687.588
688.098
688.608
689.118
689.628
690.138
690.648
691.158
691.668
692.178
692.688
693.198
693.708
694.218
694.728
695.238
695.748
696.258
696.768
697.278
697.788
698.298
698.808
699.318
699.828
700.338
700.848
701.358
701.868
702.378
702.888
703.398
703.908
704.417
704.927
705.437
705.947
706.457
706.967
707.477
707.987
708.497
709.007
709.517
710.027
710.537
711.047
711.557
712.067
712.577
713.087
713.597
714.107
714.617
715.127
715.637
716.147
716.657
717.167
717.677
718.187
718.697
719.207
719.717
720.227
720.737
721.246
721.756
722.266
722.776
723.286
723.796
724.306
724.816
725.326
725.836
726.346
726.856
727.366
727.876
728.386
728.896
729.406
729.916
730.426
730.936
731.446
731.956
732.466
732.976
733.486
733.996
734.506
735.016
735.526
736.036
736.546
737.056
737.566
738.076
738.586
739.095
739.605
740.115
740.625
741.135
741.645
742.155
742.665
743.175
743.685
744.195
744.705
745.215
745.725
746.235
746.745
747.255
747.765
748.275
748.785
749.295
749.805
750.315
750.825
751.335
751.845
752.355
752.865
753.375
753.885
754.395
754.905
755.415
755.924
756.434
756.944
757.454
757.964
758.474
758.984
759.494
760.004
760.514
761.024
761.534
762.044
762.554
763.064
763.574
764.084
764.594
765.104
765.614
766.124
766.634
767.144
767.654
768.164
768.674
769.184
769.694
770.204
770.714
771.224
771.734
772.243
772.753
773.263
773.774
774.283
774.793
775.303
775.813
776.323
776.833
777.343
777.853
778.363
778.873
779.383
779.893
780.403
780.913
781.423
781.933
782.443
782.953
783.463
783.973
784.483
784.993
785.503
786.013
786.523
787.033
787.543
788.053
788.563
789.073
789.583
790.092
790.603
791.112
791.622
792.132
792.642
793.152
793.662
794.172
794.682
795.192
795.702
796.212
796.722
797.232
797.742
798.252
798.762
799.272
799.782
800.292
800.802
801.312
801.822
802.332
802.842
803.352
803.862
804.372
804.882
805.392
805.902
806.412
806.922
807.431
807.942
808.451
808.961
809.471
809.981
810.491
811.001
811.511
812.021
812.531
813.041
813.551
814.061
814.571
815.081
815.591
816.101
816.611
817.121
817.631
818.141
818.651
819.161
819.671
820.181
820.691
821.201
821.711
822.221
822.731
823.241
823.751
824.261
824.771
825.28
825.79
826.3
826.81
827.32
827.83
828.34
828.85
829.36
829.87
830.38
830.89
831.4
831.91
832.42
832.93
833.44
833.95
834.46
834.97
835.48
835.99
836.5
837.01
837.52
838.03
838.54
839.05
839.56
840.07
840.58
841.09
841.6
842.11
842.62
843.129
843.639
844.149
844.659
845.169
845.679
846.189
846.699
847.209
847.719
848.229
848.739
849.249
849.759
850.269
850.779
851.289
851.799
852.309
852.819
853.329
853.839
854.349
854.859
855.369
855.879
856.389
856.899
857.409
857.919
858.429
858.939
859.449
859.959
860.468
860.978
861.488
861.998
862.508
863.018
863.528
864.038
864.548
865.058
865.568
866.078
866.588
867.098
867.608
868.118
868.628
869.138
869.648
870.158
870.668
871.178
871.688
872.198
872.708
873.218
873.728
874.238
874.748
875.258
875.768
876.278
876.787
877.298
877.807
878.317
878.827
879.337
879.847
880.357
880.867
881.377
881.887
882.397
882.907
883.417
883.927
884.437
884.947
885.457
885.967
886.477
886.987
887.497
888.007
888.517
889.027
889.537
890.047
890.557
891.067
891.577
892.087
892.597
893.107
893.617
894.127
894.636
895.146
895.656
896.166
896.676
897.186
897.696
898.206
898.716
899.226
899.736
900.246
900.756
901.266
901.776
902.286
902.796
903.306
903.816
904.326
904.836
905.346
905.856
906.366
906.876
907.386
907.896
908.406
908.916
909.426
909.936
910.446
910.956
911.466
911.975
912.485
912.995
913.505
914.015
914.525
915.035
915.545
916.055
916.565
917.075
917.585
918.095
918.605
919.115
919.625
920.135
920.645
921.155
921.665
922.175
922.685
923.195
923.705
924.215
924.725
925.235
925.745
926.255
926.765
927.275
927.785
928.295
928.805
929.315
929.825
930.334
930.844
931.354
931.864
932.374
932.884
933.394
933.904
934.414
934.924
935.434
935.944
936.454
936.964
937.474
937.984
938.494
939.004
939.514
940.024
940.534
941.044
941.554
942.064
942.574
943.084
943.594
944.104
944.614
945.124
945.634
946.144
946.653
947.163
947.673
948.183
948.693
949.203
949.713
950.223
950.733
951.243
951.753
952.263
952.773
953.283
953.793
954.303
954.813
955.323
955.833
956.343
956.853
957.363
957.873
958.383
958.893
959.403
959.913
960.423
960.933
961.443
961.953
962.463
962.973
963.483
963.992
964.502
965.012
965.522
966.032
966.542
967.052
967.562
968.072
968.582
969.092
969.602
970.112
970.622
971.132
971.642
972.152
972.662
973.172
973.682
974.192
974.702
975.212
975.722
976.232
976.742
977.252
977.762
978.272
978.782
979.292
979.802
980.312
980.822
981.331
981.841
982.351
982.861
983.371
983.881
984.391
984.901
985.411
985.921
986.431
986.941
987.451
987.961
988.471
988.981
989.491
990.001
990.511
991.021
991.531
992.041
992.551
993.061
993.571
994.081
994.591
995.101
995.611
996.121
996.631
997.141
997.651
998.161
998.671
999.18
999.69
1000.2
1000.71
1001.22
1001.73
1002.24
1002.75
1003.26
1003.77
1004.28
1004.79
1005.3
1005.81
1006.32
1006.83
1007.34
1007.85
1008.36
1008.87
1009.38
1009.89
1010.4
1010.91
1011.42
1011.93
1012.44
1012.95
1013.46
1013.97
1014.48
1014.99
1015.5
1016.01
1016.519
1017.029
1017.539
1018.049
1018.559
1019.069
1019.579
1020.089
1020.599
1021.109
1021.619
1022.129
1022.639
1023.149
1023.659
1024.169
1024.679
1025.189
1025.699
1026.209
1026.719
1027.229
1027.739
1028.249
1028.759
1029.269
1029.779
1030.289
1030.799
1031.309
1031.819
1032.329
1032.839
1033.349
1033.858
1034.368
1034.878
1035.388
1035.898
1036.408
1036.918
1037.428
1037.938
1038.448
1038.958
1039.468
1039.978
1040.488
1040.998
1041.508
1042.018
1042.528
1043.038
1043.548
1044.058
1044.568
1045.078
1045.588
1046.098
1046.608
1047.118
1047.628
1048.138
1048.648
1049.158
1049.668
1050.178
1050.688
1051.197
1051.707
1052.217
1052.727
1053.237
1053.747
1054.257
1054.767
1055.277
1055.787
1056.297
1056.807
1057.317
1057.827
1058.337
1058.847
1059.357
1059.867
1060.377
1060.887
1061.397
1061.907
1062.417
1062.927
1063.437
1063.947
1064.457
1064.967
1065.477
1065.987
1066.497
1067.007
1067.516
1068.027
1068.536
1069.046
1069.556
1070.066
1070.576
1071.086
1071.596
1072.106
1072.616
1073.126
1073.636
1074.146
1074.656
1075.166
1075.676
1076.186
1076.696
1077.206
1077.716
1078.226
1078.736
1079.246
1079.756
1080.266
1080.776
1081.286
1081.796
1082.306
1082.816
1083.326
1083.836
1084.346
1084.856
1085.366
1085.875
1086.385
1086.895
1087.405
1087.915
1088.425
1088.935
1089.445
1089.955
1090.465
1090.975
1091.485
1091.995
1092.505
1093.015
1093.525
1094.035
1094.545
1095.055
1095.565
1096.075
1096.585
1097.095
1097.605
1098.115
1098.625
1099.135
1099.645
1100.155
1100.665
1101.175
1101.685
1102.195
1102.705
1103.215
1103.724
1104.234
1104.744
1105.254
1105.764
1106.274
1106.784
1107.294
1107.804
1108.314
1108.824
1109.334
1109.844
1110.354
1110.864
1111.374
1111.884
1112.394
1112.904
1113.414
1113.924
1114.434
1114.944
1115.454
1115.964
1116.474
1116.984
1117.494
1118.004
1118.514
1119.024
1119.534
1120.044
1120.553
1121.063
1121.573
1122.083
1122.593
1123.103
1123.613
1124.123
1124.633
1125.143
1125.653
1126.163
1126.673
1127.183
1127.693
1128.203
1128.713
1129.223
1129.733
1130.243
1130.753
1131.263
1131.773
1132.283
1132.793
1133.303
1133.813
1134.323
1134.833
1135.343
1135.853
1136.363
1136.873
1137.382
1137.893
1138.402
1138.912
1139.422
1139.932
1140.442
1140.952
1141.462
1141.972
1142.482
1142.992
1143.502
1144.012
1144.522
1145.032
1145.542
1146.052
1146.562
1147.072
1147.582
1148.092
1148.602
1149.112
1149.622
1150.132
1150.642
1151.152
1151.662
1152.172
1152.682
1153.192
1153.702
1154.212
1154.722
1155.231
1155.741
1156.251
1156.761
1157.271
1157.781
1158.291
1158.801
1159.311
1159.821
1160.331
1160.841
1161.351
1161.861
1162.371
1162.881
1163.391
1163.901
1164.411
