fnirSoft:	Exported Text File
Version:	4.2
ExportDate:	12/18/2023 12:00:36 PM
VariableInfo
Name:	oxygraph4.hbt.Block1
Size:	2036 x 16
Type:	Numeric
Content:	Hemoglobin
Date:	12/18/2023 12:00:25 PM
Notes:	Total-hemoglobin concentration changes data saved by Oxygraph from file C:\Users\Anette Johansson\Documents\COBI Studio Data\LRV patienter\0003p_group1_R\FILIPPA_0003p_1_01181508.oxy
Labels:	HBT	DATA
VariableData
Hemoglobin	Hemoglobin	Hemoglobin	Hemoglobin	Hemoglobin	Hemoglobin	Hemoglobin	Hemoglobin	Hemoglobin	Hemoglobin	Hemoglobin	Hemoglobin	Hemoglobin	Hemoglobin	Hemoglobin	Hemoglobin
Optode1	Optode2	Optode3	Optode4	Optode5	Optode6	Optode7	Optode8	Optode9	Optode10	Optode11	Optode12	Optode13	Optode14	Optode15	Optode16
0.749976	0.262623	-0.441563	-0.133311	-0.498942	-0.608176	-0.478888	-0.788681	-0.699392	-0.749334	-0.794346	-0.787925	-0.347007	-0.166035	-0.00150300000000003	0.090767
0.406958	-0.334648	-0.310608	-0.120974	-0.429913	-0.586738	-0.382195	-0.841316	-0.604361	-0.657544	-0.606979	-0.632211	-0.322967	-0.082586	-0.004243	0.086409
-0.056179	-1.028707	-0.603833	-0.500746	-0.692908	-1.228907	-0.59605	-1.461052	-0.76089	-0.92678	-0.817292	-0.826941	-0.350314	-0.0964390000000001	0.035115	0.116953
0.035339	-1.256952	-0.555866	-0.591982	-0.668341	-1.210865	-0.58103	-1.581557	-0.935796	-1.21701	-0.990613	-1.053643	-0.735	-0.599752	-0.209281	0.095127
0.316125	-1.579763	-1.008844	-1.058278	-0.891314	-1.667505	-0.766929	-2.198536	-1.149194	-1.54212	-1.21206	-1.339708	-0.882857	-0.89805	-0.291925	0.090767
0.726033	-1.672123	-1.311412	-1.372793	-1.183296	-2.249825	-0.96907	-2.957429	-1.384013	-1.988463	-1.377525	-1.626343	-0.981852	-1.059781	-0.461791	0.073342
0.827087	-1.889049	-1.678046	-1.742745	-1.329781	-2.625249	-1.129575	-3.558976	-1.79027	-2.793504	-1.863457	-2.158946	-1.215289	-1.336327	-0.855303	-0.039305
0.890037	-2.074667	-1.800818	-1.908976	-1.401433	-2.713266	-1.254405	-4.002136	-1.880139	-3.112863	-1.800984	-2.235708	-1.433688	-1.565181	-1.186364	-0.129515
0.895931	-2.303302	-1.866336	-2.001916	-1.592668	-3.017423	-1.491397	-4.600505	-2.271663	-3.813459	-2.233749	-2.716059	-1.747492	-2.061258	-1.556092	-0.180759
0.609943	-2.704042	-1.879498	-2.149279	-1.486591	-2.757193	-1.469092	-4.692498	-2.394411	-4.124999	-2.296873	-2.791712	-1.821079	-2.266101	-1.814207	-0.189278
0.22712	-3.089786	-1.929198	-2.241624	-1.552009	-2.910105	-1.561226	-5.017506	-2.346454	-4.18709	-2.104054	-2.544629	-1.666105	-2.011162	-1.843379	-0.202045
0.312674	-2.988427	-1.785695	-2.164926	-1.388731	-2.493459	-1.461368	-4.78149	-2.265944	-4.126165	-1.914353	-2.188596	-1.759054	-1.932249	-1.997333	-0.185019
0.237873	-3.054309	-1.897985	-2.193148	-1.476785	-2.625575	-1.523706	-4.870534	-2.232915	-4.037241	-1.893585	-1.898944	-1.632469	-1.533078	-1.909472	-0.146621
0.24523	-2.899352	-1.471858	-1.808959	-1.567399	-2.73355	-1.569056	-4.910295	-2.284206	-4.093148	-2.056816	-1.759492	-1.928614	-1.63106	-2.155551	-0.180759
0.136563	-2.898124	-1.376265	-1.745477	-1.314041	-2.226015	-1.322053	-4.390509	-2.053593	-3.707749	-1.807064	-1.31705	-1.669923	-1.160619	-1.928132	-0.163703
0.046766	-2.91852	-1.279383	-1.665983	-1.187735	-2.045541	-1.187555	-4.10127	-1.746368	-3.321612	-1.409801	-0.877712	-1.338108	-0.667018	-1.620781	-0.133794
-0.014128	-2.850964	-1.104575	-1.518176	-1.146356	-1.956472	-1.081824	-3.934175	-1.653853	-3.304968	-1.417719	-0.830001	-1.01226	-0.266702	-1.372685	-0.120954
-0.036985	-2.730919	-0.89553	-1.339091	-1.102193	-1.929623	-0.981131	-3.76206	-1.317405	-2.972587	-1.067016	-0.546906	-0.992556	-0.232221	-1.369957	-0.15195
-0.086009	-2.734595	-0.799318	-1.304538	-0.963382	-1.749024	-0.803335	-3.517637	-1.255158	-3.030546	-1.075247	-0.61857	-1.05413	-0.300625	-1.46633	-0.197791
-0.107781	-2.631625	-0.604764	-1.153733	-0.896096	-1.818574	-0.717981	-3.51853	-1.087418	-2.978566	-0.95989	-0.58571	-0.970304	-0.266702	-1.448689	-0.202045
-0.167416	-2.740335	-0.734722	-1.301315	-0.728101	-1.663706	-0.556996	-3.336964	-0.843558	-2.787386	-0.74145	-0.514652	-1.072857	-0.434552	-1.543912	-0.244503
-0.19358	-2.748499	-0.734574	-1.319617	-0.525163	-1.347935	-0.387318	-3.044965	-0.840933	-2.862625	-0.803835	-0.600096	-0.873567	-0.266911	-1.38726	-0.219046
-0.174652	-2.628163	-0.572127	-1.188809	-0.433086	-1.304061	-0.323132	-2.923388	-0.80382	-2.815089	-0.812879	-0.659921	-1.189921	-0.667192	-1.696436	-0.274135
-0.167416	-2.545796	-0.441566	-1.073449	-0.516577	-1.599583	-0.395509	-3.079454	-0.657855	-2.557366	-0.589933	-0.526218	-0.87484	-0.316401	-1.369957	-0.227538
-0.164611	-2.569017	-0.522809	-1.124365	-0.445072	-1.553722	-0.361753	-2.968527	-0.529918	-2.34074	-0.426651	-0.380245	-0.894027	-0.350927	-1.373862	-0.252977
-0.100529	-2.489865	-0.42536	-1.022318	-0.485376	-1.644357	-0.419222	-2.999519	-0.473815	-2.154467	-0.395058	-0.384895	-0.918548	-0.382461	-1.384366	-0.227538
-0.139371	-2.51092	-0.506855	-1.073449	-0.349395	-1.372285	-0.352879	-2.717731	-0.72562	-2.40115	-0.740861	-0.680778	-0.802168	-0.214391	-1.213164	-0.214798
-0.14662	-2.463205	-0.376151	-0.973664	-0.234009	-1.189899	-0.289369	-2.483496	-0.703048	-2.27573	-0.750658	-0.706086	-0.86671	-0.246056	-1.241825	-0.215878
-0.230449	-2.448057	-0.457378	-1.025561	-0.275589	-1.257367	-0.326026	-2.478324	-0.713663	-2.213303	-0.761051	-0.717574	-0.951556	-0.364111	-1.351576	-0.237111
-0.196123	-2.446854	-0.424612	-0.959286	-0.395768	-1.531617	-0.428188	-2.592586	-0.601938	-1.951247	-0.578876	-0.593193	-0.918768	-0.298742	-1.354015	-0.252977
-0.21501	-2.504952	-0.505558	-1.026981	-0.340003	-1.395278	-0.408233	-2.468012	-0.620552	-1.884414	-0.618064	-0.648445	-0.971145	-0.366237	-1.385876	-0.271005
-0.198017	-2.463205	-0.408822	-0.92321	-0.267404	-1.212729	-0.344889	-2.211944	-0.748176	-2.011343	-0.8142	-0.846097	-0.918548	-0.34892	-1.384366	-0.265676
-0.18541	-2.404872	-0.310694	-0.805055	-0.276543	-1.258427	-0.34693	-2.211944	-0.648527	-1.826076	-0.687537	-0.738232	-1.067551	-0.514643	-1.506226	-0.282587
-0.183524	-2.415423	-0.310608	-0.790024	-0.107158	-0.960122	-0.200814	-1.875444	-0.543277	-1.668307	-0.556138	-0.604737	-1.014181	-0.482104	-1.476013	-0.291033
-0.190773	-2.487639	-0.376261	-0.837912	-0.12656	-1.006006	-0.194867	-1.827107	-0.485845	-1.606595	-0.578279	-0.632396	-0.876517	-0.34757	-1.350699	-0.286811
-0.124861	-2.486497	-0.343432	-0.790024	-0.165166	-1.096396	-0.213795	-1.840679	-0.37594	-1.459284	-0.441588	-0.488989	-0.787983	-0.266702	-1.27933	-0.328968
-0.091384	-2.446854	-0.261124	-0.725027	-0.063538	-0.912803	-0.126079	-1.646711	-0.337138	-1.401874	-0.414936	-0.452126	-0.788994	-0.266176	-1.232208	-0.337382
-0.029962	-2.345299	-0.080007	-0.536054	0.068154	-0.772464	-0.013005	-1.449185	-0.33174	-1.430759	-0.476454	-0.48222	-0.737267	-0.214391	-1.167441	-0.328968
-0.064397	-2.310157	-0.079696	-0.533847	0.135678	-0.819729	0.030118	-1.483183	-0.074307	-1.12721	-0.192894	-0.219622	-0.774742	-0.233844	-1.157514	-0.366782
-0.049895	-2.382586	-0.030104	-0.500746	0.189527	-0.770302	0.060689	-1.380803	0.0544210000000001	-0.999992	-0.029079	-0.063025	-0.657134	-0.116209	-1.064224	-0.362587
-0.063484	-2.479283	-0.095582	-0.582855	0.314283	-0.517844	0.16078	-1.172925	-0.117366	-1.287451	-0.313303	-0.296461	-0.591321	-0.03206	-0.972175	-0.375169
0.009019	-2.381497	0.119554	-0.416146	0.28482	-0.726278	0.15091	-1.270545	0.020557	-1.097279	-0.129568	-0.144971	-0.494978	0.10315	-0.831402	-0.370976
-0.01636	-2.404872	0.119307	-0.451584	0.438404	-0.494328	0.260795	-1.090945	0.155507	-0.915857	0.027991	0.035709	-0.335666	0.25613	-0.687993	-0.35532
0.043532	-2.344188	0.2694	-0.299198	0.331767	-0.747644	0.155246	-1.302152	0.20631	-0.834417	0.118511	0.149066	-0.324708	0.273097	-0.671856	-0.351119
0.017209	-2.217773	0.218915	-0.351907	0.400729	-0.586097	0.19953	-1.172094	0.22945	-0.784795	0.185854	0.23189	-0.506835	0.052389	-0.79836	-0.380498
0.017209	-1.971634	0.252392	-0.284212	0.453206	-0.470229	0.237689	-1.106865	0.157015	-0.882882	0.08527	0.189184	-0.333947	0.255878	-0.577261	-0.35839
0.028072	-1.756335	0.268604	-0.235738	0.422252	-0.466421	0.211046	-1.052864	0.060212	-1.013514	-0.038281	0.092318	-0.482515	0.052556	-0.70465	-0.391925
0.022635	-1.63517	0.218915	-0.200222	0.303487	-0.654462	0.103951	-1.219599	0.000425999999999982	-0.998089	-0.0833199999999999	0.06154	-0.390376	0.205148	-0.558288	-0.35419
0.028072	-1.586302	0.152711	-0.248629	0.194256	-0.77109	0.017486	-1.303019	-0.024038	-0.981666	-0.0284030000000001	0.089844	-0.635379	-0.048928	-0.764931	-0.379361
-0.021786	-1.513556	0.120153	-0.246264	0.214262	-0.633108	0.034331	-1.140318	-0.0621100000000001	-0.950758	-0.0534899999999999	0.056686	-0.574162	0.069661	-0.667653	-0.35839
-0.032695	-1.295015	0.26875	-0.081421	0.194256	-0.607355	0.016579	-1.104227	-0.164658	-1.029925	-0.206093	-0.060625	-0.746451	-0.048297	-0.760353	-0.349991
-0.042603	-1.342266	0.038046	-0.193099	0.050842	-0.761599	-0.108281	-1.224426	-0.29279	-1.131294	-0.423996	-0.22037	-0.702891	0.00183800000000001	-0.683921	-0.345789
0.04261	-1.179767	0.168463	-0.06626	0.091909	-0.581873	-0.088205	-1.033943	-0.414213	-1.214678	-0.602584	-0.38636	-0.949146	-0.250214	-0.886888	-0.341587
0.049936	-1.167405	0.104556	-0.072841	0.036125	-0.608176	-0.143481	-1.052864	-0.378716	-1.079088	-0.438334	-0.305884	-0.913103	-0.216986	-0.84482	-0.362587
0.050811	-1.07603	0.0853639999999999	-0.101843	0.048911	-0.423026	-0.102891	-0.858196	-0.372021	-1.017272	-0.386104	-0.287127	-0.811904	-0.098334	-0.727749	-0.320549
0.003636	-1.088187	0.003633	-0.16098	0.104834	-0.307913	-0.056069	-0.744958	-0.397295	-1.058587	-0.466015	-0.373123	-0.789876	-0.065287	-0.714862	-0.351119
-0.007301	-0.955809	0.068972	-0.09873	0.143906	-0.347623	-0.030146	-0.733379	-0.24255	-0.894908	-0.255131	-0.209917	-0.747808	-0.064834	-0.713204	-0.337382
-0.027246	-0.918084	0.019383	-0.148409	0.211631	-0.301001	0.013025	-0.700461	-0.112948	-0.765934	-0.046624	-0.064941	-0.596817	0.052806	-0.620379	-0.349991
-0.000888	-0.856892	0.152036	-0.071048	0.224312	-0.352717	0.00249199999999999	-0.75767	0.040172	-0.60315	0.185854	0.06897	-0.543176	0.036171	-0.651362	-0.35419
-0.08431	-1.019105	-0.046507	-0.300325	0.262944	-0.302935	0.036833	-0.72182	0.043238	-0.664886	0.178517	0.050768	-0.454367	0.086234	-0.638856	-0.375169
-0.104968	-0.994164	0.019235	-0.308091	0.172149	-0.656578	-0.047666	-0.958391	0.05874	-0.704118	0.237511	0.021578	-0.247409	0.221875	-0.466161	-0.38469
-0.125006	-0.981449	0.086432	-0.316418	0.138889	-0.860505	-0.083776	-1.132811	-0.024182	-0.85806	0.100579	-0.120394	-0.32981	0.086633	-0.595044	-0.400294
-0.139371	-0.908407	0.168425	-0.27206	0.232278	-0.838018	-0.047703	-1.084471	-0.085458	-0.956166	-0.000640000000000029	-0.137046	-0.246944	0.170939	-0.529243	-0.375169
-0.174652	-0.973502	0.10203	-0.338784	0.30021	-0.67628	0.0175	-0.902044	-0.040523	-0.788956	0.099846	0.014346	-0.06308	0.358069	-0.353318	-0.366782
-0.065149	-0.817338	0.402135	-0.08828	0.413932	-0.42161	0.079199	-0.638819	-0.132837	-0.859343	-0.077364	-0.038132	-0.289513	0.221988	-0.513642	-0.370976
-0.061638	-0.757023	0.485938	0.031687	0.417466	-0.298794	0.08199	-0.480354	-0.160269	-0.76351	-0.123265	0.022412	-0.571392	0.018579	-0.733287	-0.379361
-0.042638	-0.608346	0.654404	0.220771	0.360128	-0.453722	0.062919	-0.521023	-0.0958559999999999	-0.572162	-0.050922	0.15826	-0.386415	0.341454	-0.483556	-0.379361
-0.08431	-0.751507	0.38579	0.035616	0.457714	-0.246984	0.131606	-0.341068	-0.090011	-0.550517	-0.06843	0.19685	-0.375437	0.409785	-0.467355	-0.362587
-0.057148	-0.690875	0.452877	0.138868	0.382595	-0.248375	0.103241	-0.358365	-0.025748	-0.396483	0.06991	0.290508	-0.50222	0.274226	-0.563787	-0.379361
-0.111447	-0.765206	0.26875	0.020418	0.314479	-0.316091	0.059086	-0.405996	-0.059246	-0.421569	0.040011	0.260404	-0.503345	0.291048	-0.563307	-0.379361
-0.068896	-0.611622	0.485994	0.20537	0.369888	-0.181465	0.115433	-0.329111	-0.207522	-0.598077	-0.199736	-0.00336499999999998	-0.399273	0.426481	-0.434259	-0.345789
-0.116866	-0.759215	0.185903	-0.01088	0.399858	-0.089872	0.148171	-0.26496	-0.115909	-0.468022	-0.057146	0.102417	-0.525777	0.273671	-0.531538	-0.370976
-0.01636	-0.655954	0.335606	0.107423	0.176044	-0.509694	-0.020437	-0.616272	-0.190412	-0.554286	-0.14938	-0.025072	-0.314539	0.477664	-0.336938	-0.333175
-0.0227	-0.768323	0.08549	-0.0803	0.101863	-0.629125	-0.113608	-0.750409	-0.158132	-0.441986	-0.03163	0.0167360000000001	-0.461647	0.341655	-0.467902	-0.362587
0.104458	-0.607232	0.335606	0.142317	0.019719	-0.793748	-0.168735	-0.920008	-0.315609	-0.626393	-0.265924	-0.191653	-0.538674	0.2221	-0.562248	-0.375169
0.029906	-0.709122	0.152105	0.006509	0.113644	-0.561021	-0.116907	-0.720791	-0.333114	-0.605494	-0.27316	-0.231244	-0.628083	0.154033	-0.621913	-0.370976
-0.017279	-0.759215	0.052478	-0.077954	0.140135	-0.514619	-0.100997	-0.655836	-0.410792	-0.748125	-0.412376	-0.37071	-0.477304	0.306936	-0.512319	-0.375169
-0.097881	-0.794095	-0.063639	-0.164567	0.166657	-0.492524	-0.100039	-0.689831	-0.410792	-0.699462	-0.369779	-0.384678	-0.683091	0.069661	-0.762009	-0.39611
-0.055307	-0.831953	-0.063685	-0.181851	-0.044858	-0.910622	-0.281379	-1.038918	-0.310289	-0.574424	-0.263768	-0.289589	-0.672551	0.035963	-0.792868	-0.404477
-0.075225	-0.934708	-0.228521	-0.299198	-0.024717	-0.796402	-0.278457	-0.958391	-0.441681	-0.723825	-0.419355	-0.454399	-0.531705	0.187989	-0.684681	-0.405623
-0.041711	-0.792557	-0.014007	-0.116028	-0.044858	-0.794512	-0.288344	-0.954768	-0.481554	-0.775258	-0.443727	-0.477135	-0.54257	0.205027	-0.683921	-0.39611
-0.11054	-0.864977	-0.129217	-0.177051	-0.048227	-0.819729	-0.277468	-0.942408	-0.425626	-0.672014	-0.340034	-0.352351	-0.872069	-0.149862	-0.968911	-0.442051
-0.165647	-0.844787	-0.078313	-0.138324	-0.0175059999999999	-0.749066	-0.273448	-0.906084	-0.440363	-0.674132	-0.363381	-0.396506	-0.820364	-0.082586	-0.935362	-0.434868
-0.14662	-0.896964	-0.129731	-0.197987	-0.034803	-0.818583	-0.296268	-0.972567	-0.389418	-0.622141	-0.31594	-0.333613	-0.733117	0.00176899999999999	-0.90662	-0.455714
-0.118546	-0.999483	-0.228521	-0.264722	-0.099098	-0.936013	-0.335059	-1.026313	-0.32102	-0.542199	-0.252614	-0.301212	-0.650074	0.120298	-0.809092	-0.430695
-0.077793	-0.943752	-0.096673	-0.149513	-0.237908	-1.164112	-0.440987	-1.219599	-0.252477	-0.412972	-0.120785	-0.193968	-0.756613	-0.015166	-0.919226	-0.446219
-0.087881	-0.869769	-0.030628	-0.064099	-0.234069	-1.119949	-0.422258	-1.141106	-0.150063	-0.267471	0.086387	-0.084147	-0.863138	-0.116209	-1.04433	-0.45455
-0.086009	-0.818316	0.101998	0.036686	-0.055389	-0.751101	-0.283426	-0.828515	-0.140575	-0.317705	-0.00240700000000005	-0.179949	-0.882033	-0.149862	-1.093151	-0.479507
-0.141233	-0.955356	-0.029651	-0.074171	0.121222	-0.377478	-0.123089	-0.494583	-0.124406	-0.331419	0.0222059999999999	-0.161337	-1.10327	-0.417504	-1.327536	-0.508559
-0.105912	-0.898444	0.10203	-0.012052	-0.00842200000000004	-0.628127	-0.213491	-0.718633	-0.341052	-0.719602	-0.369124	-0.465936	-0.733522	-0.015182	-0.998303	-0.467035
-0.154789	-1.166031	-0.27736	-0.346118	-0.080319	-0.77109	-0.27537	-0.840408	-0.144579	-0.460954	-0.063476	-0.231244	-0.957085	-0.233889	-1.200975	-0.467035
-0.04711	-0.985954	0.019136	-0.096481	-0.287553	-1.228907	-0.424841	-1.19996	-0.160861	-0.480725	-0.110722	-0.254653	-0.878705	-0.132385	-1.095528	-0.475352
-0.11054	-1.180796	-0.260122	-0.343562	-0.105737	-0.863943	-0.267445	-0.841316	-0.00806699999999994	-0.283222	0.110538	-0.0279160000000001	-1.164741	-0.45038	-1.359142	-0.496118
-0.021773	-0.951168	0.119094	-0.043218	-0.122577	-0.926558	-0.282761	-0.865903	-0.191813	-0.55992	-0.173769	-0.231244	-0.840083	-0.082627	-1.030423	-0.455714
-0.155708	-1.244934	-0.341773	-0.427158	0.07545	-0.466421	-0.118779	-0.554602	-0.262404	-0.663586	-0.306511	-0.327753	-0.829279	-0.099392	-1.015714	-0.458713
-0.052498	-1.113692	-0.112836	-0.247463	-0.206843	-1.089295	-0.332519	-1.017077	-0.229597	-0.627375	-0.220271	-0.303557	-0.627016	0.120079	-0.842207	-0.429539
-0.097881	-1.208839	-0.242494	-0.375423	-0.024821	-0.677163	-0.219548	-0.722815	-0.51514	-1.060713	-0.620051	-0.64607	-0.435352	0.290378	-0.713204	-0.405623
-0.014502	-1.08961	-0.046704	-0.2141	-0.228816	-1.115511	-0.358561	-1.086487	-0.288798	-0.709215	-0.220825	-0.331469	-0.519408	0.170939	-0.79517	-0.429539
0.0063	-0.917641	0.219986	-0.00715100000000002	-0.130767	-0.858388	-0.290639	-0.898662	-0.454857	-0.960951	-0.51884	-0.602049	-0.411065	0.306927	-0.686103	-0.425366
-0.039939	-0.901337	0.185903	-0.01088	-0.067529	-0.745954	-0.236306	-0.804622	-0.342452	-0.785884	-0.325153	-0.45201	-0.371384	0.375881	-0.634189	-0.391925
-0.086117	-1.047697	-0.013678	-0.181851	-0.0285049999999999	-0.633701	-0.201783	-0.743369	-0.19858	-0.564744	-0.0904670000000001	-0.287127	-0.44594	0.273097	-0.683921	-0.408657
-0.118678	-1.248637	-0.228218	-0.350818	-0.189528	-0.913911	-0.303261	-0.980725	-0.333936	-0.764296	-0.24847	-0.460158	-0.284074	0.42671	-0.523966	-0.397254
-0.176482	-1.329304	-0.294283	-0.421505	-0.281316	-1.04952	-0.37565	-1.090945	-0.357284	-0.821954	-0.252614	-0.491486	-0.528663	0.137082	-0.781067	-0.42652
-0.172861	-1.256148	-0.146202	-0.303498	-0.20349	-0.882949	-0.32373	-0.952755	-0.453712	-1.000895	-0.407771	-0.627582	-0.662467	-0.013964	-0.883378	-0.404477
-0.161972	-1.112257	0.069501	-0.14727	-0.190934	-0.93248	-0.30514	-1.007101	-0.551235	-1.204968	-0.608983	-0.770429	-0.628083	0.001751	-0.888449	-0.443211
-0.240451	-1.291621	-0.227335	-0.38057	-0.131584	-0.83244	-0.262678	-0.965257	-0.341052	-0.9148	-0.236348	-0.479853	-0.41065	0.221913	-0.702283	-0.44738
-0.17107	-1.212673	-0.112652	-0.299198	-0.237822	-1.021351	-0.346462	-1.16641	-0.327523	-0.91371	-0.246852	-0.493763	-0.596817	0.00196000000000002	-0.855303	-0.44738
-0.211659	-1.375404	-0.359117	-0.499601	-0.286604	-1.096855	-0.379674	-1.176579	-0.303534	-0.809061	-0.135156	-0.449442	-0.548644	0.052856	-0.797787	-0.462875
-0.196331	-1.281565	-0.310686	-0.43861	-0.428178	-1.321514	-0.48824	-1.399349	-0.479038	-1.050827	-0.39769	-0.631972	-0.595877	0.035658	-0.840708	-0.442051
-0.164751	-1.143823	-0.129731	-0.287319	-0.293067	-1.070664	-0.385451	-1.106018	-0.488205	-1.024572	-0.419266	-0.592991	-0.75478	-0.099392	-0.953507	-0.471194
-0.146673	-0.993492	0.035653	-0.151616	-0.252394	-1.000824	-0.342778	-1.038918	-0.38008	-0.868468	-0.282447	-0.435933	-0.486299	0.221913	-0.671237	-0.433711
-0.138361	-1.068258	-0.094581	-0.227731	-0.228816	-0.953215	-0.32373	-1.004343	-0.2336	-0.630126	-0.000269999999999992	-0.205637	-0.712636	-0.03206	-0.874458	-0.433711
-0.090642	-1.067193	-0.113213	-0.254892	-0.12206	-0.749066	-0.245571	-0.827766	-0.245701	-0.630126	-0.0451550000000001	-0.261493	-0.400128	0.255894	-0.639519	-0.418166
-0.173747	-1.250077	-0.424879	-0.484741	-0.191833	-0.933237	-0.320013	-0.991159	-0.273967	-0.690708	-0.050922	-0.301212	-0.473585	0.154294	-0.687993	-0.421191
-0.19542	-1.214079	-0.359796	-0.457553	-0.224412	-1.02631	-0.370605	-1.140318	-0.337138	-0.822892	-0.119597	-0.428892	-0.552065	0.018618	-0.79517	-0.433711
-0.230592	-1.142283	-0.212105	-0.355915	-0.138953	-0.905351	-0.304607	-1.050798	-0.420046	-1.009248	-0.242347	-0.56279	-0.4871	0.069292	-0.763535	-0.442051
-0.23862	-1.053618	-0.0801789999999999	-0.27297	-0.106645	-1.003695	-0.30514	-1.174486	-0.370698	-0.935274	-0.173135	-0.530801	-0.733913	-0.217088	-1.029726	-0.450386
-0.256714	-1.153999	-0.194514	-0.348537	-0.082128	-0.887964	-0.269348	-1.05826	-0.230948	-0.70826	0.0803670000000001	-0.291924	-0.634914	-0.116164	-0.95412	-0.446219
-0.18447	-1.140721	-0.211797	-0.35771	-0.134709	-0.909129	-0.308869	-1.07159	-0.347889	-0.836491	-0.161927	-0.370969	-0.603174	-0.031956	-0.875115	-0.412837
-0.143071	-1.203481	-0.326401	-0.365743	-0.07395	-0.654462	-0.249352	-0.790604	-0.415658	-0.795735	-0.202474	-0.335499	-0.682229	-0.048653	-0.886888	-0.387738
-0.007227	-0.982972	-0.030628	-0.117087	-0.211648	-0.906395	-0.331613	-0.920008	-0.333936	-0.419565	-0.0923699999999998	-0.081495	-0.702542	0.10315	-0.873045	-0.320549
-0.377094	-0.946783	-0.014028	0.003056	-0.270414	-0.835986	-0.347364	-0.702712	-0.396128	-0.06427	-0.218524	0.028451	-0.40404	0.632569	-0.554991	-0.197791
-0.748947	0.408105	0.251823	0.289541	-0.388506	-0.790024	-0.412743	-0.56613	-0.445535	0.299294	-0.233029	0.117789	-0.324708	0.735479	-0.512319	-0.156223
-1.038352	1.592057	-0.096559	0.022711	-0.590523	-1.001641	-0.587942	-0.638819	-0.448025	0.582824	-0.124941	0.287756	-0.561781	0.546489	-0.764249	-0.129515
-1.135086	2.92613	-0.047145	0.106264	-0.757497	-1.161103	-0.754882	-0.702712	-0.612601	0.643558	-0.24956	0.312371	-0.708643	0.513892	-1.002589	-0.133794
-1.408078	3.542468	-0.12901	0.00898599999999999	-0.765858	-1.165678	-0.746348	-0.594949	-0.716329	0.594403	-0.4019	0.217646	-0.792446	0.46383	-1.065709	-0.155165
-1.551516	2.978886	0.136003	0.146085	-0.868397	-1.506827	-0.806087	-0.793234	-0.728719	0.530168	-0.389706	0.202738	-0.679299	0.649921	-1.000331	-0.104851
-1.874508	1.950506	-0.060388	-0.100587	-0.729763	-1.323774	-0.685451	-0.557552	-0.778532	0.402036	-0.483752	0.099104	-0.570939	0.753818	-0.923262	-0.096267
-1.956978	1.756069	0.135778	0.026413	-0.622649	-1.180353	-0.592519	-0.430013	-0.864742	0.122633	-0.685731	-0.127976	-0.293729	0.97768	-0.700167	-0.091972
-2.005806	1.423421	-0.044164	-0.151396	-0.650469	-1.321514	-0.601759	-0.521475	-0.612601	0.320042	-0.382781	0.054805	-0.495453	0.719431	-0.860869	-0.169032
-1.702186	1.374155	0.203216	0.030432	-0.780554	-1.658358	-0.69286	-0.81493	-0.441681	0.435145	-0.166091	0.153326	-0.498001	0.632297	-0.826772	-0.189278
-1.565367	0.87725	-0.210113	-0.33947	-0.801139	-1.796668	-0.689214	-0.91896	-0.237457	0.648386	0.139675	0.34461	-0.807656	0.2395	-1.124466	-0.26254
-1.31386	0.83295	-0.112985	-0.228979	-0.547489	-1.300727	-0.468705	-0.507343	-0.452401	0.184544	-0.274346	-0.015892	-0.564284	0.443447	-0.903068	-0.271005
-1.159614	0.727795	-0.109454	-0.233907	-0.667444	-1.640109	-0.537662	-0.804622	-0.152707	0.498005	0.130355	0.294926	-0.531031	0.443519	-0.904585	-0.312123
-1.036706	0.700011	-0.08011	-0.2141	-0.39312	-1.114614	-0.300049	-0.352222	-0.343835	0.070244	-0.272546	-0.050828	-0.185789	0.821657	-0.572222	-0.29214
-0.976734	0.559702	-0.210113	-0.271604	-0.44168	-1.276921	-0.336746	-0.537523	-0.0175109999999999	0.468288	0.189568	0.359344	-0.56294	0.426481	-0.904585	-0.333175
-0.84953	0.554934	-0.178974	-0.21291	-0.363312	-1.048883	-0.232572	-0.287634	-0.041911	0.334688	0.0346430000000001	0.221847	-0.218694	0.856254	-0.572222	-0.303692
-0.884909	0.328158	-0.47322	-0.427158	-0.266499	-0.726844	-0.128035	-0.0704	-0.037698	0.271222	0.00472499999999998	0.177493	-0.347007	0.718209	-0.653677	-0.351119
-0.745798	0.542283	-0.063442	-0.077954	-0.319977	-0.911267	-0.166847	-0.220808	0.197348	0.554384	0.359146	0.456978	-0.732698	0.307432	-1.015714	-0.39611
-0.835296	0.415283	-0.225906	-0.17027	-0.32465	-0.95501	-0.170593	-0.285572	0.122284	0.349432	0.233611	0.28313	-0.531031	0.494799	-0.840708	-0.400294
-0.752904	0.58892	0.070029	0.062638	-0.324309	-1.01673	-0.162827	-0.342445	0.149637	0.268691	0.22616	0.238553	-0.271819	0.752606	-0.636669	-0.408657
-0.807001	0.431711	-0.161054	-0.122318	-0.35345	-1.04567	-0.172421	-0.434782	0.31915	0.438966	0.464126	0.366988	-0.378656	0.597977	-0.748773	-0.443211
-0.766217	0.4091	-0.178463	-0.143645	-0.275918	-0.908285	-0.126715	-0.302778	0.248982	0.310974	0.398472	0.209751	-0.518187	0.460895	-0.859023	-0.446219
-0.813208	0.261347	-0.423881	-0.326292	-0.124506	-0.588253	-0.00910900000000003	-0.056566	0.217658	0.246995	0.344575	0.120168	-0.477304	0.477664	-0.824505	-0.429539
-0.773315	0.444356	-0.144453	-0.090242	-0.18368	-0.769447	-0.066884	-0.185335	0.148211	0.13231	0.202803	0.00745599999999996	-0.370557	0.58071	-0.744062	-0.421191
-0.818534	0.350844	-0.308728	-0.223781	-0.019394	-0.44599	0.038107	0.049777	0.050248	-0.069763	0.0672229999999999	-0.107564	-0.339191	0.615684	-0.741267	-0.421191
-0.764431	0.457007	-0.144785	-0.056771	-0.156517	-0.724943	-0.080917	-0.220808	0.145407	0.12907	0.255063	-0.002112	-0.337487	0.614902	-0.776622	-0.437882
-0.765328	0.445651	-0.194514	-0.09156	-0.15016	-0.583766	-0.075764	-0.115119	0.019138	-0.049664	0.047169	-0.154259	-0.220512	0.736339	-0.676663	-0.417015
-0.83182	0.302972	-0.47322	-0.294345	-0.210682	-0.750218	-0.121039	-0.239874	0.080348	0.052021	0.093685	-0.069862	-0.247858	0.735602	-0.702283	-0.462875
-0.763502	0.580257	-0.079488	0.058751	-0.249725	-0.792917	-0.096815	-0.200459	0.038032	-0.00326899999999997	0.011543	-0.135627	-0.392644	0.615102	-0.806564	-0.442051
-0.844893	0.533061	-0.143254	0.014361	-0.246823	-0.787762	-0.074138	-0.209287	0.156285	0.163015	0.155665	0.00962599999999991	-0.474056	0.478254	-0.922669	-0.496118
-0.840642	0.501577	-0.194776	-0.025829	-0.141106	-0.630056	-0.00454900000000003	-0.096641	0.257241	0.275054	0.351113	0.143971	-0.305933	0.701165	-0.775767	-0.459879
-0.829939	0.536872	-0.045375	0.096254	-0.198671	-0.71562	-0.061795	-0.189192	0.094069	0.019271	0.061175	-0.095596	-0.572666	0.392259	-1.030423	-0.501447
-0.758221	0.721569	0.30176	0.37596	-0.072147	-0.467319	0.041373	0.020296	0.203258	0.172529	0.254145	0.045668	-0.429279	0.529873	-0.908367	-0.491967
-0.875938	0.486226	-0.062346	0.077465	-0.056695	-0.465455	0.045678	0.023828	0.257241	0.258075	0.395914	0.129875	-0.56294	0.341006	-1.029726	-0.464043
-0.882985	0.514221	-0.062346	0.077465	-0.248489	-0.92534	-0.090815	-0.391547	0.24807	0.221186	0.328521	0.146558	-0.49721	0.341074	-0.984304	-0.42652
-0.858981	0.429175	-0.093274	0.066841	-0.363295	-1.113651	-0.183002	-0.531858	-0.132837	-0.367078	-0.315223	-0.316266	-0.574716	0.224749	-1.03599	-0.417015
-0.696039	0.653675	0.318461	0.428559	-0.285643	-0.843033	-0.123911	-0.323855	-0.248709	-0.480695	-0.510073	-0.432246	-0.422085	0.259071	-0.958209	-0.380498
-0.568599	0.722686	0.237134	0.370423	-0.372346	-0.841285	-0.147734	-0.28662	-0.191813	-0.312468	-0.369779	-0.287235	-0.223925	0.478062	-0.751265	-0.269906
-0.491826	0.813464	0.268418	0.395639	-0.301847	-0.610232	-0.079972	-0.084784	-0.106616	-0.09447	-0.214629	-0.086373	-0.323424	0.443519	-0.750084	-0.219046
-0.488235	0.861347	0.285688	0.382791	-0.136751	-0.331789	0.057045	0.181459	-0.149557	-0.123123	-0.309675	-0.090669	-0.452176	0.30712	-0.876895	-0.207374
-0.421102	0.905603	0.201733	0.31021	-0.327107	-0.68057	-0.042997	-0.071299	0.174206	0.470785	0.22481	0.487359	-0.245971	0.222433	-0.719645	0.051596
-0.36631	0.854298	-0.028715	0.115117	-0.407499	-0.747644	-0.068743	-0.1173	0.073976	0.342585	-0.002967	0.483103	-0.183139	0.120079	-0.686103	0.310768
-0.298092	1.056103	0.102623	0.231071	-0.578897	-0.996896	-0.154064	-0.313106	0.12314	0.427281	0.064143	0.674262	-0.074979	0.272884	-0.606386	0.426798
-0.344813	1.001977	-0.04601	0.096254	-0.495536	-0.859479	-0.081172	-0.177211	0.020226	0.212391	-0.078161	0.583743	-0.110745	0.307539	-0.665109	0.44026
-0.361004	1.113238	0.069501	0.144794	-0.514286	-0.974578	-0.119811	-0.327825	0.06939	0.28114	0.033329	0.653245	-0.230759	0.256716	-0.77488	0.413353
-0.449738	0.982462	-0.125611	-0.0497040000000001	-0.40643	-0.858388	-0.017788	-0.159862	0.169329	0.359791	0.185088	0.76764	-0.013366	0.512745	-0.537659	0.443914
-0.447082	1.004809	-0.078659	-0.09156	-0.475459	-1.088178	-0.086315	-0.392919	0.227918	0.391398	0.284437	0.861269	-0.143665	0.358476	-0.617831	0.452903
-0.483716	0.851645	-0.289876	-0.287503	-0.605607	-1.334551	-0.185197	-0.65431	0.204776	0.324003	0.282971	0.861269	0.184517	0.735862	-0.251973	0.52135
-0.430034	1.053328	0.006469	-0.086081	-0.616253	-1.388092	-0.202192	-0.746789	0.384507	0.533498	0.577845	1.104303	0.175016	0.787131	-0.207699	0.502468
-0.45335	1.084637	-0.111573	-0.177051	-0.466535	-1.136931	-0.123193	-0.562398	0.257449	0.31879	0.379286	0.961967	-0.097047	0.51194	-0.448523	0.467228
-0.413031	1.108907	0.037651	-0.024565	-0.532973	-1.297492	-0.165391	-0.665139	0.334544	0.474785	0.474048	1.110339	0.153546	0.683681	-0.271188	0.55224
-0.239549	0.977762	-0.259806	-0.227731	-0.464874	-1.047408	-0.097851	-0.517097	0.286606	0.407232	0.395497	1.095716	0.065992	0.443447	-0.335385	0.657741
0.039991	1.113238	-0.111895	-0.09409	-0.6372	-1.316454	-0.23359	-0.792769	0.22945	0.306835	0.35133	1.127651	0.11157	0.529177	-0.130636	0.74494
-0.18791	0.966413	-0.176924	-0.074171	-0.814325	-1.5722	-0.372704	-0.984404	0.209649	0.485481	0.368545	1.211638	-0.051566	0.512114	-0.274256	0.860658
-0.788337	2.024787	-0.210464	-0.076728	-0.861539	-1.459733	-0.449309	-0.80252	0.0544210000000001	0.774237	0.267598	1.114466	-0.021342	0.632048	-0.367434	0.903257
-1.211883	2.513839	-0.192227	-0.055427	-0.84888	-1.274328	-0.497138	-0.629681	-0.134361	0.684294	0.033329	0.891817	-0.0774809999999999	0.563475	-0.617831	0.884608
-1.581414	3.175993	-0.324042	-0.108934	-0.910368	-1.323086	-0.586488	-0.619686	-0.188993	0.86406	0.016702	0.849368	0.068048	0.615064	-0.763535	0.86531
-1.952128	4.032218	-0.144453	-0.00967100000000001	-1.025469	-1.460414	-0.693754	-0.753724	-0.277542	0.749354	-0.012737	0.792718	-0.093387	0.324537	-1.140429	0.823505
-1.969116	3.815608	-0.440017	-0.228979	-1.161143	-1.592518	-0.790422	-0.961624	-0.345202	0.484272	-0.055258	0.702229	-0.173747	0.120079	-1.322862	0.795716
-1.603679	3.557714	-0.310644	-0.117087	-1.062403	-1.433296	-0.71711	-0.830722	-0.333817	0.295332	-0.066069	0.716495	-0.09622	0.221913	-1.200262	0.786468
-1.325933	3.363466	-0.357551	-0.15708	-1.096707	-1.568524	-0.76198	-0.961624	-0.25174	0.245248	-0.00950799999999999	0.827234	-0.292218	0.069292	-1.29245	0.781847
-1.084696	3.346865	-0.359837	-0.117087	-0.997154	-1.416267	-0.667604	-0.856371	-0.056318	0.441684	0.275347	1.079923	-0.485875	-0.032026	-1.401057	0.71807
-0.922835	3.184798	-0.620186	-0.314086	-0.754715	-0.936013	-0.455809	-0.407632	0.12797	0.639477	0.484014	1.319774	-0.613603	-0.048623	-1.47902	0.635668
-0.57554	3.348361	-0.310644	0.003056	-0.889042	-1.256442	-0.551501	-0.590673	0.324216	0.923151	0.760576	1.585649	-0.805383	-0.166344	-1.602778	0.530394
-0.404024	3.057755	-0.603833	-0.194374	-0.857115	-1.04952	-0.517813	-0.436961	0.12797	0.638187	0.426865	1.346532	-0.430277	0.307258	-1.216937	0.534919
-0.181612	3.084524	-0.506855	-0.069239	-0.748571	-0.772464	-0.415119	-0.134583	-0.161748	0.222498	-0.025553	0.983017	-0.19327	0.666653	-0.889881	0.543974
-0.050811	3.105656	-0.376236	0.055181	-0.861382	-1.027897	-0.47157	-0.338162	0.09261	0.623493	0.349143	1.319774	-0.527758	0.358395	-1.062456	0.530394
0.094583	3.098106	-0.277325	0.15028	-0.767828	-0.774404	-0.361753	-0.120306	-0.051322	0.402036	0.114253	1.134299	-0.218042	0.718148	-0.728638	0.575718
0.062595	2.809152	-0.604802	-0.116028	-0.596835	-0.449256	-0.212811	0.149256	0.135943	0.63693	0.379924	1.338496	-0.062628	0.891135	-0.575298	0.548503
0.187461	2.867552	-0.359702	0.084622	-0.63892	-0.612505	-0.257571	-0.00398700000000007	0.229952	0.737031	0.557355	1.406827	-0.236404	0.718465	-0.700905	0.44026
0.168152	2.592023	-0.588119	-0.077954	-0.726892	-0.843862	-0.346892	-0.255208	0.370735	0.923151	0.816223	1.529101	-0.537225	0.392843	-0.968911	0.275293
0.254844	2.663282	-0.310567	0.139983	-0.897933	-1.209043	-0.482226	-0.501113	0.262646	0.701256	0.612705	1.279724	-0.345366	0.614957	-0.794435	0.187067
0.186385	2.384106	-0.604588	-0.096481	-0.78574	-1.004733	-0.405342	-0.304815	0.053014	0.383679	0.312355	0.952562	-0.097815	0.908197	-0.524819	0.142248
0.283198	2.523406	-0.261426	0.190071	-0.672721	-0.841934	-0.335816	-0.149725	0.195912	0.603632	0.514839	1.148931	-0.215295	0.770059	-0.590116	0.072367
0.253017	2.325707	-0.490454	0.040111	-0.557402	-0.609615	-0.249352	0.071354	0.234271	0.690115	0.527653	1.210246	-0.401303	0.597674	-0.729494	0.064638
0.319777	2.269806	-0.457832	0.108618	-0.61371	-0.586097	-0.27122	0.139927	0.286606	0.746373	0.489484	1.277374	-0.075768	0.99494	-0.398647	0.116953
0.434383	2.423191	-0.195569	0.328883	-0.689696	-0.631718	-0.307947	0.142288	0.239444	0.701256	0.400191	1.221102	-0.155107	0.96086	-0.3776	0.155396
0.447466	2.386651	-0.210113	0.355593	-0.712901	-0.672075	-0.321228	0.118015	0.28211	0.776924	0.429786	1.269055	-0.24912	0.925631	-0.416576	0.102889
0.484088	2.461306	0.00293399999999999	0.555416	-0.578022	-0.370368	-0.211032	0.371975	0.31915	0.878683	0.552779	1.351998	-0.183139	1.064816	-0.306994	0.068013
0.40621	2.164709	-0.308345	0.305571	-0.515262	-0.25705	-0.178513	0.400508	0.45085	1.049413	0.76695	1.521276	-0.051094	1.222234	-0.179914	0.033238
0.395066	2.074955	-0.293842	0.314983	-0.688777	-0.649589	-0.329952	0.033297	0.371704	0.953055	0.635742	1.348396	-0.105921	1.204674	-0.180533	0.011556
0.371451	1.925324	-0.343216	0.278656	-0.823177	-0.901823	-0.440594	-0.165843	0.317611	0.908455	0.552431	1.250216	0.124083	1.450374	0.124588	0.06366
0.252114	1.813394	-0.293865	0.305053	-0.725437	-0.723339	-0.368269	0.00891699999999999	0.274252	0.916501	0.53378	1.206515	-0.06308	1.22201	-0.00294	0.068989
0.13201	1.613753	-0.392022	0.212264	-0.672721	-0.585388	-0.352518	0.108575	0.223422	1.015766	0.497731	1.127651	0.068504	1.327079	0.028722	0.05931
0.13722	1.745046	-0.261254	0.32348	-0.711851	-0.726278	-0.41605	0.036565	0.215584	1.121164	0.53378	1.162422	0.178794	1.467812	0.092179	0.077696
0.20666	1.664416	-0.424181	0.197313	-0.651369	-0.607355	-0.390963	0.093616	0.30363	1.347906	0.70595	1.363187	-0.018345	1.309692	-0.084596	0.089798
0.434574	1.790648	-0.343216	0.24363	-0.803764	-0.929817	-0.531886	-0.209287	0.258918	1.355186	0.696281	1.382672	0.131009	1.519978	0.112335	0.151958
0.684834	1.811053	-0.489035	0.150171	-0.745891	-0.743996	-0.489328	-0.074266	-0.00584699999999999	0.985087	0.276953	1.094574	0.00943400000000005	1.414498	0.131653	0.169499
0.953735	2.020565	-0.35965	0.263585	-0.839212	-0.787762	-0.541394	-0.170365	-0.010319	1.008974	0.250568	1.111441	-0.074132	1.414634	0.174278	0.147577
1.13529	2.139765	-0.375073	0.251325	-0.829514	-0.766482	-0.548342	-0.206567	0.018682	1.122686	0.344671	1.177111	-0.19609	1.326541	0.144827	0.151958
1.248557	2.130499	-0.506819	0.177264	-0.823332	-0.77109	-0.558769	-0.282217	-0.034808	1.114088	0.337752	1.148931	-0.360222	1.169339	0.0666479999999999	0.138819
1.324748	2.226301	-0.474208	0.177264	-0.716513	-0.608176	-0.501492	-0.199347	-0.056318	1.048015	0.339922	1.154264	-0.31595	1.221484	0.09735	0.099489
1.345476	2.201762	-0.425335	0.192343	-0.888933	-0.92771	-0.608071	-0.561086	-0.109461	0.872183	0.301633	1.097307	-0.264662	1.258444	0.089594	0.090767
1.186583	1.829281	-0.831472	-0.194374	-0.872089	-0.85723	-0.599466	-0.595409	-0.254708	0.606197	0.106435	0.892933	-0.185789	1.309021	0.000906999999999991	0.007224
1.14141	1.831431	-0.734594	-0.146097	-0.898842	-0.909129	-0.630672	-0.719729	-0.143168	0.703629	0.290923	1.017573	-0.313327	1.134293	-0.177855	-0.036006
1.059947	1.641158	-0.896365	-0.314086	-0.889042	-0.887294	-0.614172	-0.737782	-0.33081	0.444538	0.000985999999999987	0.780899	-0.312894	1.151905	-0.210022	-0.057564
1.062675	1.710333	-0.669831	-0.131112	-0.875395	-0.866313	-0.595784	-0.759439	-0.172459	0.675461	0.295827	1.071805	-0.63583	0.770209	-0.559029	-0.099522
0.932036	1.519616	-0.896365	-0.364564	-0.862326	-0.841934	-0.583791	-0.755765	-0.222782	0.562671	0.257493	1.061698	-0.387397	1.04753	-0.464837	-0.129515
0.891074	1.617081	-0.750936	-0.199121	-0.820541	-0.749066	-0.541338	-0.688845	-0.216719	0.474785	0.263952	1.118414	-0.194566	1.326743	-0.319752	-0.15195
0.835334	1.506498	-0.896265	-0.330113	-1.000435	-1.118443	-0.662541	-1.021173	-0.206036	0.390027	0.207818	1.074489	-0.270266	1.256626	-0.447022	-0.169032
0.895798	1.598485	-0.701778	-0.159715	-1.051834	-1.185902	-0.679055	-1.101288	-0.12664	0.454865	0.362742	1.210246	-0.397388	1.08271	-0.623317	-0.207374
0.871521	1.549169	-0.783274	-0.264722	-0.973719	-1.072707	-0.602693	-1.023021	-0.143168	0.333491	0.33706	1.119676	-0.215295	1.309305	-0.511609	-0.219046
0.796288	1.482527	-0.750901	-0.299198	-0.918089	-1.026905	-0.538592	-1.006215	-0.128106	0.219908	0.317867	1.083754	-0.108458	1.344079	-0.508439	-0.249832
0.681408	1.404149	-0.750939	-0.335792	-0.853488	-1.097834	-0.526956	-1.126599	-0.109461	0.09834	0.357815	1.015022	-0.279479	1.064816	-0.763535	-0.307908
0.566904	1.417194	-0.669822	-0.302476	-0.879212	-1.255254	-0.533502	-1.285479	0.006915	0.147094	0.502115	1.080197	-0.138588	1.151773	-0.747333	-0.338505
0.426133	1.189018	-0.799513	-0.452664	-0.853406	-1.23281	-0.503949	-1.335459	0.021995	0.083628	0.538402	1.11706	-0.236858	1.012392	-0.839909	-0.341587
0.552186	1.346244	-0.621048	-0.283107	-0.893252	-1.347935	-0.553361	-1.419303	0.100578	0.248095	0.624754	1.203918	-0.105921	1.239213	-0.667653	-0.334297
0.77679	1.509858	-0.68605	-0.268076	-0.711851	-0.934547	-0.403069	-1.056594	-0.042593	0.057099	0.364287	1.062563	-0.141488	1.256541	-0.727749	-0.330088
0.867923	1.613753	-0.637075	-0.163406	-0.761766	-1.096396	-0.432704	-1.188801	0.015643	0.156779	0.407677	1.154264	-0.129718	1.291484	-0.698594	-0.349991
0.823215	1.563428	-0.490658	-0.097623	-0.645824	-0.958336	-0.345552	-1.073364	-0.051803	0.008713	0.310382	1.091838	-0.184363	1.151611	-0.808281	-0.380498
0.663811	1.399578	-0.52288	-0.146097	-0.782428	-1.369159	-0.45626	-1.465773	0.081801	0.151667	0.628732	1.299683	-0.084282	1.204066	-0.762788	-0.380498
0.638876	1.441016	-0.392365	-0.112638	-0.728101	-1.276122	-0.43803	-1.495298	0.049433	0.020498	0.618689	1.23423	-0.00950300000000004	1.221474	-0.71405	-0.383549
0.591797	1.29411	-0.60445	-0.281967	-0.640607	-1.164112	-0.389155	-1.435096	-0.14657	-0.324517	0.340675	0.953835	0.097158	1.274604	-0.677686	-0.376305
0.617624	1.373452	-0.473914	-0.196817	-0.752174	-1.390727	-0.493667	-1.67639	-0.06854	-0.276496	0.45116	1.030648	-0.119093	1.047101	-0.885197	-0.408657
0.562272	1.2919	-0.587718	-0.279583	-0.664698	-1.278928	-0.4466	-1.614532	0.069539	-0.048519	0.740913	1.272951	-0.19327	0.960229	-0.98145	-0.434868
0.614861	1.506498	-0.260404	-0.00715100000000002	-0.793131	-1.550049	-0.537082	-1.870217	0.151081	0.065518	0.807979	1.353212	-0.344458	0.78716	-1.091034	-0.44738
0.499669	1.421611	-0.455342	-0.087503	-0.713754	-1.364975	-0.459777	-1.657104	0.211108	0.2004	0.933738	1.453778	-0.359865	0.788903	-1.095528	-0.471194
0.765647	1.79176	-0.211532	0.178511	-0.814325	-1.456368	-0.52494	-1.737725	0.137362	0.181089	0.817494	1.36265	-0.092325	1.117257	-0.71779	-0.405623
1.026285	1.922221	-0.471824	0.033285	-0.822344	-1.340781	-0.548342	-1.622991	-0.05779	0.019271	0.506913	1.127651	0.048238	1.326891	-0.353318	-0.296362
1.311324	2.228509	-0.326603	0.231071	-0.777983	-1.114614	-0.487596	-1.414111	-0.222603	-0.112626	0.272317	0.922022	0.167177	1.502388	-0.128372	-0.237111
1.24554	2.048285	-0.619631	0.012965	-0.659409	-0.839785	-0.36917	-1.154497	-0.298879	-0.173947	0.131402	0.83631	0.146861	1.52046	-0.130636	-0.249832
1.226698	2.068491	-0.637075	0.041324	-0.502741	-0.536514	-0.232923	-0.856371	-0.433918	-0.383932	-0.107951	0.643256	0.441967	1.838832	0.064888	-0.232868
1.095449	1.79176	-0.976053	-0.242455	-0.532309	-0.656578	-0.236306	-0.895061	-0.141969	-0.006935	0.345515	1.035184	0.059354	1.39717	-0.400953	-0.316337
1.182553	2.000896	-0.65337	0.02391	-0.769091	-1.116343	-0.391857	-1.270545	-0.103706	-0.063072	0.384078	1.033327	0.100037	1.396747	-0.476497	-0.351119
1.090728	1.958691	-0.766688	-0.076728	-0.663763	-0.865821	-0.301894	-1.093219	-0.219693	-0.374934	0.140438	0.787374	0.275517	1.484764	-0.460948	-0.383549
1.043962	1.988897	-0.783195	-0.112638	-0.567284	-0.654462	-0.240806	-0.973477	-0.057824	-0.267156	0.360514	0.926529	0.433702	1.608513	-0.290637	-0.409805
1.015018	2.145315	-0.84799	-0.100841	-0.655739	-0.911267	-0.289746	-1.157802	-0.07289	-0.33035	0.324352	0.82715	0.407916	1.608268	-0.128372	-0.345789
1.061759	2.462975	-0.604806	0.13779	-0.662926	-0.906395	-0.280997	-1.086487	-0.010319	-0.250227	0.339424	0.847356	0.233114	1.396799	-0.178575	-0.346915
1.084174	2.55821	-0.555916	0.224992	-0.563622	-0.72043	-0.208366	-0.888232	0.043602	-0.101412	0.479923	0.91843	0.24132	1.379319	-0.158955	-0.317452
1.081423	2.509951	-0.636527	0.144794	-0.709824	-1.062327	-0.328815	-1.114893	-0.050265	-0.223353	0.289198	0.711095	0.320164	1.467099	-0.11342	-0.334297
1.145052	2.625447	-0.441444	0.312525	-0.749255	-1.041405	-0.362979	-1.133866	0.050932	-0.09571	0.50766	0.863881	0.156997	1.25653	-0.321999	-0.372112
1.046838	2.414685	-0.71787	0.042571	-0.639616	-0.788926	-0.288844	-0.90413	-0.043955	-0.251672	0.349964	0.707466	0.28667	1.3617	-0.319752	-0.393067
0.97488	2.465864	-0.734715	0.03458	-0.752174	-1.046572	-0.372704	-1.155373	-0.042593	-0.342555	0.342229	0.703151	0.218075	1.239763	-0.474689	-0.408657
0.981412	2.660885	-0.555929	0.170528	-0.695096	-0.976589	-0.34564	-1.038918	-0.036261	-0.331419	0.370537	0.731064	0.119279	1.11738	-0.538588	-0.417015
1.03088	2.885552	-0.441651	0.307008	-0.619188	-0.815489	-0.264425	-0.841316	-0.044638	-0.3213	0.375244	0.728317	0.0414329999999999	1.065979	-0.520225	-0.383549
1.077624	2.861942	-0.555737	0.227316	-0.63071	-0.790024	-0.259138	-0.805622	0.063852	-0.138974	0.556159	0.898958	0.130038	1.204717	-0.316289	-0.367916
1.11974	2.961071	-0.63719	0.193532	-0.6421	-0.739281	-0.277322	-0.733379	-0.00736199999999998	-0.244026	0.41004	0.775532	0.192591	1.222234	-0.292521	-0.408657
1.131001	3.072751	-0.588119	0.262343	-0.645824	-0.773051	-0.294918	-0.73023	-0.018896	-0.237758	0.433133	0.735553	0.342975	1.361639	-0.193574	-0.393067
1.122607	3.216326	-0.490454	0.347631	-0.698641	-0.95654	-0.340391	-0.861438	-0.00246999999999997	-0.217128	0.491985	0.716643	0.201096	1.169161	-0.370357	-0.44738
1.060849	3.154749	-0.619925	0.248617	-0.72007	-1.161103	-0.386651	-0.976006	-0.123031	-0.449327	0.289658	0.520485	0.252446	1.186753	-0.445389	-0.451548
1.071075	3.299951	-0.39221	0.382791	-0.594141	-0.931659	-0.292404	-0.826981	-0.0432830000000001	-0.352949	0.398472	0.596755	0.220226	1.116792	-0.589354	-0.491967
1.025386	3.134787	-0.470925	0.289413	-0.481071	-0.743996	-0.230256	-0.656812	-0.00246999999999997	-0.348163	0.426174	0.649638	0.454624	1.344124	-0.496729	-0.530457
1.052378	3.135858	-0.490708	0.25883	-0.424594	-0.609615	-0.172421	-0.563903	0.031366	-0.334425	0.491337	0.728557	0.378072	1.25653	-0.638856	-0.559398
1.169507	3.207067	-0.488294	0.252731	-0.536805	-0.909129	-0.239921	-0.761837	0.172766	-0.137108	0.760576	0.988484	0.147923	0.977795	-0.875115	-0.596504
1.226698	3.345396	-0.44129	0.313735	-0.509928	-0.863943	-0.21714	-0.713364	0.0855579999999999	-0.255355	0.644179	0.92299	0.290519	1.186773	-0.655058	-0.559398
1.184474	3.224591	-0.586515	0.182464	-0.453343	-0.793748	-0.190892	-0.594949	0.118191	-0.159036	0.675927	1.026741	0.476605	1.449553	-0.448523	-0.513888
1.18446	3.307277	-0.523356	0.25883	-0.352575	-0.561822	-0.096987	-0.360571	-0.018896	-0.303755	0.443368	0.913433	0.721849	1.767855	-0.21073	-0.493145
1.192886	3.169764	-0.60356	0.200011	-0.302081	-0.374214	-0.030146	-0.124612	0.151081	-0.052897	0.660427	1.199603	0.446063	1.485277	-0.449892	-0.504414
1.318857	3.371435	-0.244362	0.50495	-0.432442	-0.57853	-0.108281	-0.254238	0.095545	-0.116111	0.529092	1.113009	0.356697	1.449764	-0.496729	-0.501447
1.321741	3.28214	-0.456475	0.354177	-0.245117	-0.206521	0.047466	0.116336	0.109324	-0.049664	0.541304	1.115701	0.611364	1.714749	-0.290637	-0.488992
1.458635	3.669877	-0.161659	0.62762	-0.200874	-0.06589	0.099545	0.217874	0.071001	-0.132977	0.473303	1.042586	0.375637	1.449506	-0.495296	-0.518033
1.435143	3.688612	-0.290406	0.532742	-0.371415	-0.558211	-0.048553	-0.15569	0.185054	0.029511	0.661099	1.184962	0.531869	1.626004	-0.321283	-0.491967
1.421678	3.743551	-0.261047	0.57311	-0.35345	-0.535553	-0.041501	-0.172896	0.290083	0.192963	0.873216	1.321162	0.288	1.344124	-0.510866	-0.501447
1.363209	3.550851	-0.521562	0.339392	-0.306371	-0.415727	-0.013274	-0.069464	0.274252	0.116454	0.835566	1.257081	0.427196	1.468699	-0.372752	-0.500266
1.484082	3.754625	-0.211316	0.559398	-0.533793	-0.948834	-0.196831	-0.489312	0.424548	0.362136	1.113849	1.424242	0.257478	1.239372	-0.481127	-0.491967
1.411346	3.607621	-0.439661	0.374713	-0.355171	-0.604489	-0.077588	-0.189209	0.169329	-0.015819	0.700836	1.05338	0.476115	1.449553	-0.272789	-0.468204
1.433975	3.717268	-0.39221	0.401669	-0.180964	-0.281584	0.051835	0.09491	0.111426	-0.139857	0.590431	0.920958	0.707664	1.696786	-0.096103	-0.45455
1.428512	3.73538	-0.520369	0.308571	-0.26227	-0.582854	-0.031889	-0.123821	0.24084	0.075421	0.793209	1.099871	0.697716	1.64365	-0.081909	-0.476523
1.573159	4.057789	-0.161373	0.596308	-0.401582	-0.950028	-0.145962	-0.406707	0.428279	0.406745	1.108274	1.340203	0.551639	1.519978	-0.176316	-0.472364
1.522015	3.849637	-0.487418	0.327806	-0.264801	-0.65174	-0.040654	-0.0893959999999999	0.438443	0.380279	1.092702	1.361276	0.689481	1.661969	-0.083975	-0.491967
1.544716	3.917895	-0.408456	0.402983	-0.144611	-0.443632	0.042129	0.095654	0.288138	0.182207	0.846355	1.191808	0.81268	1.786216	-0.003609	-0.491967
1.496399	3.726815	-0.619303	0.201413	0.078074	0.001664	0.219904	0.470522	0.104742	-0.078781	0.513317	0.926529	0.664768	1.661372	-0.145655	-0.496118
1.651041	4.093153	-0.12901	0.593491	-0.01182	-0.348643	0.157073	0.233544	0.218651	0.050836	0.689299	1.082672	0.444414	1.414634	-0.338357	-0.522176
1.675804	4.175882	-0.144088	0.563705	-0.00523899999999999	-0.395215	0.163319	0.16575	0.345392	0.21295	0.899716	1.224934	0.578572	1.52046	-0.274939	-0.522176
1.80163	4.349459	0.00464100000000001	0.685327	-0.051074	-0.532266	0.130789	0.014191	0.471167	0.393281	1.145434	1.418923	0.480464	1.37996	-0.402961	-0.538733
1.771157	4.111306	-0.356205	0.379322	-0.133976	-0.673227	0.065343	-0.104902	0.359311	0.198106	0.970043	1.257081	0.337733	1.222496	-0.561669	-0.554069
1.864713	4.319754	-0.078659	0.579995	-0.280792	-0.875553	-0.011864	-0.234963	0.423069	0.259926	1.009377	1.279724	0.326492	1.170077	-0.577261	-0.562325
1.799769	4.12671	-0.356687	0.3455	-0.142175	-0.648414	0.087416	-0.053129	0.306796	0.062327	0.831061	1.151586	0.511419	1.432275	-0.417968	-0.545807
1.867565	4.380651	-0.062634	0.612644	-0.047942	-0.415727	0.176679	0.133698	0.21711	-0.049664	0.620963	0.994907	0.641716	1.57292	-0.288454	-0.522176
1.836976	4.28732	-0.307928	0.445517	0.106702	-0.087768	0.295507	0.389578	0.230998	-0.0304	0.62421	1.029612	0.756988	1.71513	-0.116194	-0.513888
1.944192	4.46857	-0.211066	0.528194	0.010417	-0.368036	0.204288	0.152034	0.33151	0.147094	0.843328	1.195568	0.502431	1.450656	-0.308238	-0.512704
1.963386	4.496944	-0.243582	0.510459	-0.073378	-0.487079	0.124512	-0.00219000000000003	0.204776	-2.59999999999705E-05	0.686222	1.006809	0.798664	1.767763	-0.065391	-0.480681
2.013305	4.632343	0.003365	0.698753	-0.199481	-0.766482	0.015817	-0.257042	0.305317	0.112116	0.897618	1.163573	0.624402	1.591647	-0.212045	-0.518033
1.921198	4.556709	-0.128185	0.579995	-0.019195	-0.418975	0.127867	0.011617	0.20027	-0.052897	0.718589	0.98689	0.711049	1.66176	-0.242851	-0.525128
1.869554	4.569464	-0.143687	0.565212	-0.026552	-0.490108	0.106622	-0.040118	0.088329	-0.254492	0.511692	0.824621	0.600062	1.538168	-0.402325	-0.567654
1.880009	4.75577	-0.079696	0.626274	0.018824	-0.399388	0.153462	0.0252490000000001	0.310486	0.091427	0.824809	1.077685	0.606639	1.555277	-0.383045	-0.542869
1.874262	4.679722	-0.293842	0.45459	-0.013056	-0.470786	0.134027	0.00632900000000003	0.18632	-0.027968	0.663184	0.966455	0.874071	1.874508	-0.0786829999999999	-0.509743
1.928858	4.782677	-0.211316	0.559398	-0.074961	-0.508506	0.087416	0.0334199999999999	0.094069	-0.13406	0.515515	0.861269	0.729827	1.696741	-0.207699	-0.513888
1.952008	4.882818	-0.045375	0.701663	-0.142877	-0.585388	0.043005	-0.008521	0.20027	0.09834	0.661787	0.972322	0.52215	1.502766	-0.434259	-0.551136
1.92328	4.987933	0.070695	0.804381	-0.052855	-0.371432	0.097835	0.182267	0.307731	0.273315	0.87869	1.150224	0.763747	1.749949	-0.208507	-0.522176
1.91475	5.11765	-0.011649	0.755238	-0.010985	-0.371432	0.112001	0.234392	0.130912	0.050836	0.595721	0.919375	0.732657	1.76816	-0.227785	-0.547003
1.941343	5.160942	0.069114	0.797514	0.147449	-0.141557	0.206616	0.486652	0.274946	0.359186	0.869705	1.130942	0.774624	1.927906	-0.065391	-0.468204
2.08285	4.317986	0.03894	0.75679	0.21412	-0.085389	0.205106	0.546484	0.120113	-2.59999999999705E-05	0.596453	0.881043	0.718959	1.803277	0.045942	-0.488992
2.639667	3.27272	0.153289	0.822267	0.07485	-0.41187	0.048745	0.223854	0.12797	-0.118268	0.605085	0.791408	0.267608	1.291892	-0.213227	-0.547003
3.071729	2.319309	0.054359	0.755238	0.147957	-0.205422	0.067833	0.407072	0.121619	-0.080001	0.655509	0.816391	0.150836	1.171089	-0.199775	-0.534596
2.800365	2.1099	-0.144453	0.565212	-0.026552	-0.443632	-0.082917	0.198807	0.053014	-0.0211629999999999	0.624754	0.754904	0.192032	1.275296	-0.151036	-0.488992
2.898832	2.825531	-0.161373	0.597772	0.025274	-0.209409	-0.052149	0.456901	-0.113607	0.043475	0.399029	0.627854	0.165029	1.379212	-0.259232	-0.397254
3.167862	3.967439	-0.211973	0.678212	-0.00486700000000001	-0.258531	-0.100476	0.557189	8.99999999999235E-05	0.441689	0.620323	0.853153	0.004326	1.344933	-0.452236	-0.376305
3.075857	4.760778	-0.160312	0.776291	-0.215012	-0.72043	-0.259984	0.305984	-0.012094	0.474935	0.596596	0.89165	0.164645	1.572899	-0.400217	-0.330088
2.807301	5.507424	-0.161659	0.841678	-0.101154	-0.365433	-0.132698	0.777527	-0.113607	0.444518	0.386062	0.817158	0.264368	1.714618	-0.449225	-0.35532
2.871222	6.029269	0.019383	0.995717	-0.136282	-0.314572	-0.142934	0.905028	0.095545	0.755597	0.628732	1.083754	0.148475	1.627933	-0.547171	-0.376305
2.828879	5.996484	-0.029374	0.983872	-0.03645	-0.040816	-0.063495	1.156627	0.023448	0.771689	0.538402	1.016053	0.310841	1.857453	-0.465515	-0.325878
2.628812	5.765803	0.00464100000000001	0.969114	-0.233781	-0.413223	-0.204678	0.846317	-0.011809	0.789038	0.493329	0.931289	0.52215	2.054729	-0.355934	-0.325878
2.556539	5.572012	-0.161659	0.807383	-0.304684	-0.535553	-0.251281	0.718864	-0.0473	0.83096	0.495653	0.879616	0.168141	1.697839	-0.687395	-0.330088
2.420604	5.52506	-0.095582	0.859607	-0.372268	-0.628127	-0.294138	0.650207	-0.032455	0.971823	0.553954	0.913433	0.221063	1.78599	-0.732593	-0.317452
2.301148	5.387717	-0.226688	0.706299	-0.337206	-0.559216	-0.301132	0.665902	-0.190412	0.755597	0.366692	0.788843	-0.00129599999999996	1.572917	-0.948318	-0.316337
2.0365	5.661421	0.086725	0.964287	-0.354291	-0.526942	-0.315606	0.729202	-0.27534	0.61845	0.187239	0.75741	0.239106	1.945803	-0.758567	-0.28369
1.597902	5.459213	0.022694	0.900382	-0.240328	-0.273656	-0.225748	1.03921	-0.082216	1.030495	0.514179	1.168924	0.066373	1.821308	-0.950735	-0.29214
1.822954	5.576457	0.240681	1.133795	-0.328291	-0.41187	-0.257884	0.972633	0.020557	1.266985	0.623553	1.370613	0.320164	2.125863	-0.686103	-0.249832
1.993314	5.539674	0.137649	1.090569	-0.317782	-0.320246	-0.212519	1.093037	0.072481	1.445185	0.661099	1.52409	0.464879	2.41501	-0.354692	-0.177562
2.125228	5.478205	0.120892	1.108665	-0.30802	-0.203016	-0.160856	1.231954	0.201755	1.723006	0.830365	1.736272	0.408786	2.342194	-0.368962	-0.156223
2.221037	5.399372	-0.07752	0.970796	-0.196179	0.006205	-0.041501	1.441463	0.285091	1.757323	0.944606	1.892546	0.299656	2.198979	-0.481783	-0.20312
2.278952	5.403788	0.154006	1.143225	-0.122577	0.08098	0.021236	1.480183	0.268078	1.587668	0.85874	1.820082	0.420936	2.324796	-0.32333	-0.214798
2.305293	5.264041	0.07352	1.02856	-0.039726	0.1794	0.099182	1.537453	0.230998	1.431984	0.823203	1.775013	0.361712	2.250821	-0.351008	-0.219046
2.647913	5.757283	0.191331	1.17205	-0.078012	0.018751	0.066129	1.365568	0.312877	1.34324	0.912784	1.829155	0.343931	2.234816	-0.355329	-0.252977
3.238994	6.325903	-0.027467	1.026762	0.000616999999999999	0.107974	0.105493	1.376558	0.373265	1.399603	0.970824	1.904415	0.278794	2.181801	-0.41923	-0.232868
3.132459	6.372341	0.088243	1.079334	-0.168322	-0.294973	-0.018154	1.093037	0.514541	1.551966	1.186794	2.100985	0.322537	2.2176	-0.434884	-0.231782
2.766207	6.070633	0.071498	1.061209	-0.127315	-0.10396	0.052694	1.255272	0.601858	1.639718	1.25706	2.204292	0.345479	2.235769	-0.498631	-0.258306
2.662134	6.127233	0.205797	1.151977	-0.161652	-0.197385	0.074758	1.256689	0.601858	1.656031	1.244522	2.234764	0.624402	2.527002	-0.404135	-0.28369
2.717091	6.155697	0.173833	1.137525	0.048584	0.088333	0.241578	1.5053	0.785007	1.779978	1.418339	2.408861	0.590449	2.508001	-0.436035	-0.338505
3.183104	6.340916	0.307035	1.277731	0.202	0.252484	0.404322	1.645641	0.965831	1.8307	1.577858	2.562106	0.63455	2.563112	-0.102097	-0.316337
3.11761	6.37097	0.243469	1.285653	0.20956	0.252484	0.439488	1.593677	1.125317	2.000388	1.694117	2.693332	0.677608	2.616443	0.043935	-0.258306
2.978241	6.401065	0.195062	1.34072	0.242784	0.254065	0.504993	1.628795	1.154552	1.956982	1.711093	2.747632	0.81326	2.763381	0.139317	-0.257211
3.122763	6.540862	0.261206	1.410109	0.32962	0.419052	0.603157	1.786596	1.27703	1.987962	1.79322	2.877107	0.839907	2.802633	0.153779	-0.29214
3.252987	6.633038	0.311309	1.463288	0.297678	0.410818	0.604741	1.782363	1.258844	1.93246	1.798445	2.880231	0.894356	2.856791	0.170204	-0.330088
3.429492	6.916412	0.427171	1.56989	0.323379	0.456091	0.649575	1.873155	1.191036	1.937234	1.708368	2.858863	0.959179	2.946213	0.139317	-0.316337
3.371467	6.805559	0.393152	1.51447	0.478647	0.718793	0.761914	2.050148	1.205592	1.940601	1.711093	2.865461	0.93259	2.925072	0.1418	-0.321666
3.233823	6.608337	0.49238	1.565758	0.473007	0.638927	0.764694	2.006444	1.196442	1.96045	1.681152	2.847697	1.025467	3.037994	0.301209	-0.309021
2.831049	5.883871	0.158262	1.263321	0.422108	0.688407	0.75743	2.060514	1.180058	2.045857	1.689147	2.794247	0.802471	2.799742	0.091576	-0.309021
2.666194	5.62904	0.32278	1.312395	0.210295	0.371597	0.603157	1.716041	1.222295	2.126615	1.834203	2.867909	0.656624	2.634844	-0.004243	-0.307908
2.484804	5.156839	0.075397	1.106931	0.280473	0.561841	0.634285	1.821931	1.227558	2.098605	1.851589	2.881051	0.616922	2.547616	-0.039139	-0.338505
2.986988	5.677645	0.420509	1.391143	0.368277	0.849346	0.680685	2.073118	1.156333	2.120365	1.723013	2.766465	0.926102	1.610115	0.429534	0.131025
4.143422	6.908451	0.996402	1.950062	0.136514	0.88017	0.610381	2.138159	0.963559	2.323645	1.380251	2.567238	1.168575	-0.115895	1.385768	1.304722
5.680537	8.387111	1.199161	2.179605	-0.359307	0.466577	0.47047	1.795753	0.868162	3.000746	1.289814	2.792101	0.55084	-1.966443	1.788305	3.149961
7.370089	9.859676	1.079335	2.10851	-0.761073	-0.043809	0.276326	1.287368	0.992285	3.821135	1.605842	3.526698	0.419114	-2.518283	2.727249	5.400026
8.969158	11.469846	1.302121	2.327808	-0.976964	-0.410448	0.122281	0.986038	0.833692	4.045383	1.474803	3.854735	0.25139	-2.753211	3.464073	7.430054
10.258161	12.541958	1.254569	2.310939	-1.165787	-0.700927	-0.014977	0.704662	0.676376	4.164934	1.235809	4.118375	0.495517	-2.437024	4.378713	9.318353
11.35917	13.397728	1.356569	2.434675	-1.363654	-0.972875	-0.177775	0.43922	0.636934	4.426826	1.276924	4.473218	0.47389	-2.339594	4.946971	10.886925
12.293632	14.46738	1.723214	2.737953	-1.433362	-1.073686	-0.26906	0.333358	0.635214	4.599866	1.357591	4.798076	0.133353	-2.541448	4.98393	11.9241
12.804405	14.877583	1.63584	2.646843	-1.3183	-0.825207	-0.260755	0.504184	0.600921	4.726022	1.372946	5.055673	0.151463	-2.35721	5.283741	12.84998
13.047901	14.960715	1.529331	2.546555	-1.502429	-1.134723	-0.460762	0.134471	0.580111	4.859039	1.488306	5.22772	0.441967	-1.935797	5.808209	13.785916
12.771989	15.545425	1.492958	2.447133	-1.763164	-1.511684	-0.786102	-0.236269	0.20943	4.690697	1.154131	5.041839	0.252446	-1.985677	5.694484	14.37762
12.87341	15.885596	1.582467	2.458215	-1.91485	-1.700909	-0.9765	-0.436242	-0.123659	4.37033	0.810873	4.819484	0.042838	-2.114668	5.468559	14.607126
12.910401	15.47512	1.394664	2.265793	-2.031375	-1.865256	-1.135794	-0.630204	-0.204182	4.398436	0.790011	4.911589	-0.175136	-2.224313	5.281344	14.671441
12.97377	15.083552	1.269306	2.143294	-2.044187	-1.735363	-1.196135	-0.616697	-0.357944	4.268944	0.665219	4.831777	-0.087161	-2.046856	5.318797	14.773094
12.89524	14.469661	0.911478	1.858659	-2.157452	-1.833538	-1.309998	-0.744842	-0.509446	4.134441	0.5092	4.706355	-0.507703	-2.43918	4.855517	14.75515
13.124487	14.626579	0.944431	1.891671	-2.408367	-2.238666	-1.524316	-1.130034	-0.652399	4.052879	0.449004	4.619243	-0.390376	-2.219287	5.02165	14.970137
13.184873	14.430248	0.875938	1.819196	-2.647803	-2.676464	-1.742871	-1.531923	-0.720211	4.167752	0.475333	4.663178	-0.522292	-2.239539	4.983995	15.305634
13.018944	14.729118	1.06218	1.974603	-2.726975	-2.763309	-1.881772	-1.642932	-0.992724	3.971758	0.121812	4.375656	-0.653375	-2.358377	4.85611	15.560881
13.325053	14.51957	0.932335	1.891269	-2.821127	-2.781355	-2.028355	-1.682739	-1.096587	4.089225	0.03404	4.379497	-0.674392	-2.35488	4.928777	15.869637
13.287524	14.41236	0.790326	1.761314	-2.880104	-2.807998	-2.1008	-1.704942	-1.257624	4.105975	-0.11127	4.342845	-0.640638	-2.238576	5.021011	16.122211
13.087302	14.579845	0.657949	1.61348	-2.99898	-3.011179	-2.190282	-1.846694	-1.195063	4.306148	0.016005	4.548355	-0.74825	-2.319312	4.799296	16.034541
13.165107	14.737127	0.724693	1.662554	-3.178141	-3.271182	-2.301041	-2.119392	-1.321825	4.058753	-0.161927	4.37471	-0.82377	-2.321094	4.689117	15.873832
13.361395	14.596247	0.540932	1.455697	-3.271945	-3.375521	-2.356286	-2.227252	-1.379188	3.99207	-0.138549	4.329515	-0.866464	-2.272754	4.670706	15.899144
13.490077	14.698398	0.791271	1.621222	-3.331429	-3.496739	-2.436914	-2.392089	-1.637443	3.627972	-0.466186	4.049628	-0.695979	-2.069444	4.855465	15.84725
13.277067	14.015511	0.610388	1.425594	-3.194464	-3.323663	-2.396597	-2.392089	-1.616673	3.506305	-0.406164	4.095483	-0.577941	-1.491476	4.65372	13.720816
11.728139	11.740647	0.403642	1.226769	-2.783194	-2.931739	-2.151284	-2.154638	-1.248304	3.596405	0.0521879999999999	4.34418	0.105169	-0.174623	4.603672	10.443961
9.643089	9.095414	0.03997	0.816419	-2.428833	-2.746026	-1.915283	-2.059143	-0.82853	3.883252	0.585218	4.573309	0.625382	0.490756	4.602952	8.63166
8.178142	7.610628	0.188967	0.898855	-2.191431	-2.623949	-1.686681	-2.143106	-0.78531	3.431342	0.455897	4.21954	1.309834	1.231899	4.680012	6.993943
7.299033	6.505456	-0.00726899999999997	0.732223	-1.998675	-2.470695	-1.440673	-2.11638	-0.64588	3.224636	0.455311	4.051687	1.676014	1.674403	4.677491	5.920952
6.662965	5.790918	0.523928	1.08872	-1.808671	-2.288763	-1.133799	-2.063552	-0.457673	3.151242	0.446346	3.879598	2.581897	1.548319	5.274473	5.909024
5.939628	5.046288	0.698403	1.082904	-1.577419	-2.239177	-0.789418	-2.108314	-0.230385	2.95734	0.416871	3.7605	3.005691	1.43921	5.525979	6.083367
5.762235	4.672126	0.895357	1.119329	-1.18483	-1.930794	-0.235112	-2.147874	0.104742	2.745936	0.532156	3.889996	3.185685	1.214109	5.185366	5.785903
5.702241	4.504245	0.798281	0.955327	-0.849694	-1.830739	0.200307	-2.270087	0.535073	2.727238	0.973262	4.26685	2.915328	0.994056	4.772186	5.342341
5.77637	4.964707	1.342992	1.406018	-0.705629	-1.87215	0.387738	-2.298812	1.03263	2.961906	1.536529	4.698276	2.91783	1.36107	4.661074	4.946492
5.625251	4.942464	1.24909	1.367851	-0.560538	-1.756795	0.494953	-2.167382	1.388679	3.020845	1.957595	4.865551	3.012272	1.854593	4.680941	4.526099
6.155843	5.743862	1.74419	1.749001	-0.570696	-1.731885	0.515244	-2.08637	1.372244	2.724981	1.894818	4.66976	3.309935	1.584272	4.978511	5.139931
6.129259	5.678272	1.419426	1.43721	-0.646814	-1.947977	0.454603	-2.307699	1.365269	2.51841	1.867477	4.471627	3.383096	1.320112	5.349916	5.831447
6.095994	5.593888	1.483968	1.446952	-0.689609	-2.199153	0.305558	-2.591915	1.287919	2.193406	1.782704	4.370806	3.671178	1.315974	5.711434	6.027994
5.899943	5.51776	1.244028	1.271479	-0.513045	-1.868826	0.367037	-2.279586	1.205796	1.948011	1.670455	4.287017	4.10864	1.470955	6.170693	6.3656
6.003091	5.634011	1.228451	1.294164	-0.594311	-1.84854	0.236474	-2.228683	1.257119	2.161697	1.797881	4.423389	3.819697	1.195487	6.182057	6.737874
5.983095	5.390144	0.957662	1.123962	-0.578157	-1.708698	0.206505	-2.084856	1.30801	2.468548	1.949615	4.639835	3.620096	1.419323	6.246924	6.755882
5.991624	5.527175	1.22945	1.439473	-0.678247	-1.82086	0.125154	-2.099852	1.225786	2.529057	1.858947	4.583144	3.778837	1.987897	6.573825	6.518773
5.773567	5.168713	0.835364	1.172238	-0.585601	-1.57102	0.198664	-1.778524	1.394354	2.903236	2.091617	4.863424	3.405517	1.972919	6.378448	6.190906
5.771649	5.199089	0.919086	1.277985	-0.693769	-1.75137	0.140812	-1.795208	1.321008	2.903236	1.963986	4.758685	3.403402	2.239596	6.556313	6.012848
5.725576	5.005343	0.562092	1.03029	-0.814893	-1.801306	0.07027	-1.831546	1.26817	2.919776	1.93831	4.663178	3.644222	2.60063	6.77347	5.851287
5.727507	5.009374	0.441369	0.921067	-0.995982	-1.978735	-0.076043	-2.00515	1.054536	2.638451	1.663476	4.326457	3.27493	2.227537	6.338299	5.534313
5.745473	5.162516	0.388826	0.828451	-1.015367	-2.031212	-0.108426	-2.092117	0.89172	2.420058	1.519573	4.098239	3.234625	2.203103	6.268481	5.393321
5.768004	5.126479	0.173833	0.626059	-1.098306	-2.162111	-0.196136	-2.281021	0.703729	2.126547	1.304023	3.823832	3.185157	2.182336	6.254405	5.297513
5.691981	5.026634	-0.060388	0.414846	-1.135657	-2.233467	-0.281316	-2.444494	0.611844	2.027825	1.217119	3.717053	3.018126	2.12845	6.158002	5.212843
5.711029	5.02809	-0.094581	0.359414	-1.202474	-2.297189	-0.360813	-2.521925	0.614358	2.122116	1.336777	3.755911	2.935034	2.146589	6.100608	5.10695
5.712066	5.122218	-0.079246	0.373514	-1.42006	-2.630188	-0.523835	-2.808111	0.535073	2.092063	1.283115	3.674	2.807326	2.187205	5.976213	4.905016
5.548445	5.004059	-0.27208	0.252546	-1.528141	-2.712408	-0.632961	-2.817635	0.36863	1.937339	1.10362	3.443832	2.721599	2.236305	5.870421	4.774779
5.487416	5.111011	-0.195355	0.316691	-1.504761	-2.655374	-0.6272	-2.716304	0.183624	1.700283	0.882911	3.216503	2.684885	2.288069	5.706374	4.619977
5.293164	5.01981	-0.289876	0.282031	-1.554437	-2.719915	-0.729976	-2.72999	0.159069	1.734505	0.893849	3.153864	2.543702	2.250497	5.604193	4.568927
5.301159	5.183121	-0.145769	0.403741	-1.383826	-2.352576	-0.6289	-2.438797	0.120904	1.765313	0.868661	3.072713	2.43936	2.199955	5.470999	4.453688
5.097135	4.770899	-0.569279	0.072908	-1.364027	-2.281492	-0.639337	-2.38679	0.167173	1.922518	0.992747	3.125842	2.356985	2.198979	5.359964	4.418948
5.043648	4.71938	-0.506296	0.148405	-1.519535	-2.545753	-0.747322	-2.591823	0.174206	1.96593	0.997173	3.157032	2.403818	2.361203	5.509036	4.433144
4.991776	4.531485	-0.616641	0.07683	-1.63093	-2.734895	-0.816158	-2.724754	0.095545	1.921159	0.886741	3.082445	2.687583	2.709259	5.844846	4.469696
5.022611	4.635465	-0.441563	0.228219	-1.594455	-2.628717	-0.764525	-2.60182	0.00950600000000001	1.84492	0.714035	3.002754	2.662051	2.761109	5.86892	4.472402
5.006492	4.561308	-0.420839	0.282031	-1.501249	-2.448031	-0.667656	-2.389978	0.005209	1.854015	0.700009	3.023534	2.408206	2.585372	5.536073	4.331007
5.059348	4.71938	-0.145346	0.523195	-1.26244	-2.006768	-0.463178	-1.932496	0.117062	1.966055	0.805808	3.062097	2.403634	2.488055	5.416151	4.288581
4.970674	4.471924	-0.436823	0.297845	-1.194755	-1.853718	-0.382258	-1.759493	0.344042	2.285552	1.148529	3.344591	2.51174	2.60063	5.46457	4.23932
4.962372	4.506916	-0.357551	0.359414	-1.376384	-2.209263	-0.506627	-2.04673	0.170861	2.008174	0.845575	3.032979	2.567598	2.650755	5.548584	4.289408
4.900798	4.238404	-0.616641	0.126033	-1.386676	-2.193362	-0.486719	-2.038788	0.360865	2.293038	1.153318	3.28004	2.557847	2.653258	5.579798	4.294753
4.946247	4.426073	-0.309919	0.350453	-1.543021	-2.589383	-0.589982	-2.323995	0.381673	2.3435	1.221556	3.288533	2.745384	2.907952	5.80915	4.307942
4.887089	4.479869	-0.1773	0.458956	-1.482106	-2.475393	-0.55697	-2.27138	0.060212	1.794183	0.66249	2.790269	2.591224	2.741824	5.606591	4.259396
4.88568	4.548714	0.019136	0.602377	-1.342225	-2.256174	-0.475415	-2.083399	0.097037	1.830391	0.709258	2.762464	2.543533	2.70356	5.451116	4.211006
4.790062	4.352381	-0.211316	0.418085	-1.42652	-2.416105	-0.535538	-2.225691	0.299568	2.113357	1.107736	3.051054	2.496462	2.612634	5.278917	4.094943
4.81591	4.369534	-0.162458	0.450291	-1.354464	-2.271224	-0.49435	-2.090727	0.173973	1.925274	0.929258	2.877731	2.60288	2.723088	5.306841	4.004801
4.737038	4.115367	-0.457062	0.19623	-1.352422	-2.329008	-0.477102	-2.121707	0.288138	2.164547	1.165008	3.029682	2.486824	2.597519	5.152854	3.956614
4.744051	4.242822	-0.261409	0.321751	-1.394529	-2.437036	-0.49278	-2.167562	0.189442	1.986011	1.004136	2.880231	2.709109	2.887754	5.326566	3.944597
4.631235	4.112631	-0.308728	0.268739	-1.399513	-2.551465	-0.52566	-2.251078	0.168547	1.92083	1.008131	2.824246	2.462502	2.650755	4.9526	3.813214
4.681799	4.221022	-0.211714	0.3455	-1.326463	-2.433101	-0.511044	-2.17816	0.0421849999999999	1.785032	0.872592	2.654354	2.791037	3.08886	5.186872	3.79007
4.576177	4.093153	-0.327001	0.290917	-1.358869	-2.431669	-0.547491	-2.208438	-0.00584699999999999	1.713612	0.816538	2.587121	2.826803	3.18191	5.070072	3.654978
4.585465	4.054337	-0.277857	0.339392	-1.250061	-2.190795	-0.458033	-2.003623	-0.015038	1.733772	0.853156	2.581473	2.827223	3.200812	4.975208	3.538237
4.585465	3.846751	-0.490658	0.17216	-1.212725	-2.157572	-0.411323	-2.032024	-0.070006	1.635607	0.76695	2.476141	2.438584	2.869012	4.496694	3.428385
4.687054	4.057789	-0.178223	0.43586	-1.218798	-2.220338	-0.386388	-2.012191	-0.0175109999999999	1.662598	0.807295	2.488302	2.426153	2.86811	4.414986	3.399645
4.649715	4.011577	-0.177642	0.43758	-1.127801	-2.146671	-0.318568	-1.910642	-0.018102	1.623341	0.827279	2.467101	2.49666	2.941664	4.39214	3.319906
4.576177	3.914978	-0.326603	0.295643	-1.16485	-2.254745	-0.34392	-2.066976	0.086258	1.725739	0.995714	2.565276	2.532076	2.960239	4.355191	3.280036
4.55446	3.945806	-0.294121	0.326239	-1.089541	-2.175168	-0.293076	-2.01312	0.073976	1.653606	1.028199	2.562106	2.392466	2.777891	4.149005	3.189712
4.526571	3.865272	-0.310686	0.254173	-1.162199	-2.346782	-0.349148	-2.166466	-0.022579	1.495707	0.867962	2.39948	2.673272	3.107497	4.39214	3.206345
4.474107	3.810346	-0.242891	0.302436	-1.112858	-2.302847	-0.320348	-2.118503	0.0366799999999999	1.620273	0.994287	2.513457	2.779678	3.237181	4.498266	3.183762
4.472923	3.720307	-0.343425	0.221923	-0.935907	-1.995828	-0.193427	-1.833622	0.0109579999999999	1.635108	0.96924	2.563078	2.755944	3.292581	4.462836	3.183762
4.613428	3.814516	-0.178223	0.382573	-1.020083	-2.106147	-0.230229	-1.865523	0.0544210000000001	1.785032	0.997798	2.715948	2.79229	3.367749	4.459682	3.183762
4.650721	3.815962	-0.194776	0.432528	-1.08634	-2.103768	-0.253014	-1.783116	0.0855579999999999	1.886396	0.995393	2.777942	2.733738	3.36851	4.402038	3.172487
4.715177	4.045186	0.103773	0.695059	-1.201653	-2.316751	-0.347332	-1.933849	-0.0676439999999999	1.693461	0.802384	2.648377	2.733489	3.442692	4.458171	3.178123
4.650721	3.920926	-0.096433	0.532742	-1.09255	-2.07692	-0.272287	-1.727568	-0.082472	1.708182	0.789339	2.627161	2.556533	3.312372	4.331233	3.155306
4.556695	3.712922	-0.423547	0.29897	-1.089945	-2.011251	-0.255682	-1.632836	-0.048608	1.775252	0.890649	2.698049	2.685761	3.498636	4.405006	3.093858
4.577197	3.822032	-0.392571	0.340865	-1.184125	-2.162111	-0.331664	-1.741585	-0.18646	1.5714	0.679045	2.464043	2.555953	3.423255	4.227027	3.026873
4.608223	3.748017	-0.474208	0.289413	-1.08634	-1.923857	-0.230229	-1.505571	0.02054	1.879978	1.061478	2.772013	2.286237	3.144548	3.905663	2.9271
4.598929	3.831346	-0.34306	0.411616	-1.125953	-1.991114	-0.266082	-1.53888	-0.0390189999999999	1.775252	0.925655	2.630081	2.228131	3.10769	3.760132	2.877525
4.528709	3.809012	-0.324886	0.403741	-1.197411	-2.18493	-0.320348	-1.695612	0.024478	1.90114	1.041067	2.691512	2.367749	3.273711	3.855282	2.877687
4.515243	3.811708	-0.309391	0.434176	-1.24128	-2.225606	-0.344784	-1.706962	0.04889	1.973385	1.085666	2.691512	2.333189	3.27441	3.77748	2.82282
4.4452	3.550851	-0.586515	0.213897	-1.22728	-2.166667	-0.338583	-1.682672	-0.074307	1.840952	0.886741	2.506673	2.13646	3.072545	3.541642	2.768205
4.453415	3.582562	-0.489356	0.263567	-1.321912	-2.393189	-0.437815	-1.895277	-0.040523	1.909691	0.954788	2.54965	2.100988	3.071414	3.491395	2.757206
4.448207	3.498226	-0.571354	0.194559	-1.244386	-2.263475	-0.369658	-1.754218	-0.032455	1.956982	0.918125	2.525228	1.950457	2.905884	3.314939	2.719266
4.508012	3.701924	-0.228048	0.464822	-1.200842	-2.302847	-0.345552	-1.718085	0.130427	2.217455	1.235423	2.765518	2.0775	3.052605	3.405427	2.702916
4.495811	3.712922	-0.210464	0.487546	-1.243981	-2.479556	-0.390063	-1.879893	0.213508	2.323536	1.32748	2.855167	1.940506	2.888951	3.291897	2.675933
4.620681	3.877618	-0.030278	0.602377	-1.235181	-2.502064	-0.382195	-1.864489	0.180815	2.255591	1.306663	2.83033	2.164147	3.15078	3.461835	2.654266
4.494841	3.567355	-0.42318	0.251017	-1.098419	-2.241927	-0.284234	-1.643392	0.045035	2.033037	1.08254	2.614284	2.310611	3.312014	3.508627	2.627371
4.537954	3.73571	-0.244924	0.408595	-1.072286	-2.168065	-0.261794	-1.521076	-0.00669199999999992	1.904451	1.021614	2.528229	2.429217	3.444082	3.554753	2.536191
4.385492	3.637376	-0.376171	0.287945	-1.159464	-2.438228	-0.355232	-1.752208	-0.015974	1.857608	1.014375	2.474398	2.415223	3.422981	3.491395	2.530846
4.414345	3.783683	-0.162651	0.424819	-1.025469	-2.277453	-0.294995	-1.631604	0.00413599999999992	1.851997	0.999096	2.497595	2.309448	3.273821	3.443035	2.552239
4.393189	3.681019	-0.274314	0.320185	-1.011255	-2.186488	-0.275673	-1.611033	-0.0337999999999999	1.778366	0.95154	2.41826	2.462949	3.424338	3.522911	2.536191
4.355677	3.594414	-0.359837	0.183854	-0.941948	-2.042245	-0.214415	-1.559719	-0.175652	1.517866	0.747845	2.204821	2.402754	3.347866	3.412218	2.541538
4.364291	3.667126	-0.274788	0.282964	-1.05882	-2.375063	-0.339491	-1.897394	-0.179508	1.461475	0.744523	2.138677	2.367738	3.255208	3.239854	2.48284
4.330141	3.660372	-0.309919	0.18823	-1.013373	-2.333697	-0.335816	-1.933118	-0.0838249999999998	1.606679	0.999193	2.294314	2.402828	3.292208	3.127207	2.408531
4.212181	3.536161	-0.539396	-0.003106	-0.923885	-2.181669	-0.285415	-1.810102	-0.204943	1.424583	0.87737	2.197564	2.299323	3.220213	2.941804	2.334684
4.304313	3.711258	-0.359877	0.163592	-1.011372	-2.267881	-0.346892	-1.854672	-0.292755	1.310858	0.734109	2.129215	2.426274	3.366607	3.003393	2.355737
4.321971	3.688065	-0.456786	0.122498	-1.099377	-2.375063	-0.379434	-1.881969	-0.50169	1.070766	0.364287	1.883356	2.427163	3.442315	3.031141	2.355672
4.4413	3.885635	-0.243253	0.329408	-1.131385	-2.366683	-0.378804	-1.807962	-0.442982	1.280171	0.443932	2.037877	2.580693	3.667914	3.184853	2.387335
4.472159	3.945806	-0.243582	0.361614	-1.013057	-2.103768	-0.281863	-1.519888	-0.288798	1.576387	0.692911	2.359771	2.047087	3.170316	2.723072	2.313669
4.405172	3.717268	-0.554977	0.138524	-0.886301	-1.752733	-0.149009	-1.154497	-0.296811	1.63376	0.707791	2.39948	2.395941	3.597224	3.037908	2.329427
4.338318	3.694207	-0.555844	0.166307	-1.227657	-2.332004	-0.377556	-1.640563	-0.375893	1.500048	0.621337	2.302334	2.484905	3.759545	3.12554	2.382104
4.360912	3.825236	-0.408959	0.267526	-1.231493	-2.327888	-0.394271	-1.588751	-0.517893	1.320772	0.448316	2.110102	2.346633	3.631694	2.920762	2.313669
4.366191	3.908567	-0.310311	0.323211	-1.32376	-2.547015	-0.484045	-1.828174	-0.641686	1.087472	0.308332	1.920386	2.368734	3.667441	2.889452	2.282215
4.304699	3.890018	-0.342647	0.324708	-1.258868	-2.50331	-0.477102	-1.828174	-0.481554	1.256287	0.5198	2.086784	2.007609	3.237435	2.512707	2.240406
4.288938	3.904709	-0.359702	0.244823	-1.049941	-2.175168	-0.328852	-1.558717	-0.342452	1.425977	0.710016	2.277422	2.240884	3.499525	2.643064	2.214351
4.208318	3.646537	-0.701575	-0.0162410000000001	-1.021916	-2.170677	-0.335192	-1.584128	-0.417599	1.297907	0.558612	2.119279	2.333503	3.573507	2.803308	2.271749
4.253034	3.699111	-0.588515	0.060012	-1.042014	-2.174136	-0.32373	-1.573227	-0.280673	1.517866	0.770219	2.280674	2.344302	3.552863	2.832784	2.33476
4.286956	3.795893	-0.376236	0.217571	-1.193851	-2.480824	-0.414519	-1.828174	-0.377336	1.354625	0.584246	2.070673	2.101894	3.257563	2.558791	2.250958
4.298133	3.804345	-0.375902	0.177264	-1.042962	-2.286028	-0.294001	-1.656108	-0.401494	1.249696	0.604411	2.022302	2.310611	3.442315	2.61343	2.219685
4.306603	3.785254	-0.341773	0.192925	-0.981241	-2.260098	-0.262678	-1.61974	-0.51514	0.977113	0.350585	1.820082	2.216452	3.273974	2.445802	2.172927
4.252028	3.723457	-0.425272	0.081497	-0.854348	-2.152549	-0.187336	-1.509919	-0.273967	1.349532	0.818153	2.176944	2.068282	3.128875	2.26338	2.095404
4.247119	3.683753	-0.488294	0.076191	-0.699558	-1.881841	-0.08732	-1.279513	-0.409383	1.114857	0.574982	2.007125	2.264593	3.349783	2.42178	2.105535
4.253352	3.743551	-0.390929	0.175297	-0.894388	-2.257543	-0.229404	-1.568684	-0.33174	1.248009	0.706385	2.125263	2.126504	3.203007	2.280101	2.090071
4.139933	3.483038	-0.683282	-0.09268	-0.91388	-2.284985	-0.232033	-1.622991	-0.22663	1.45864	0.889263	2.263494	2.34543	3.479165	2.527992	2.141696
4.13855	3.663419	-0.375576	0.153071	-0.972376	-2.350441	-0.269672	-1.701533	-0.272578	1.386788	0.841223	2.265143	2.158354	3.236971	2.307801	2.131353
4.053056	3.494174	-0.600721	-0.0207820000000001	-0.833142	-2.150381	-0.211917	-1.555515	-0.273057	1.367748	0.819199	2.241751	2.082283	3.168064	2.19179	2.074627
4.154851	3.701924	-0.292875	0.225001	-1.077492	-2.61051	-0.404039	-2.018869	-0.38008	1.177204	0.694213	2.091968	2.140168	3.223583	2.156155	2.038466
3.979737	3.310956	-0.829126	-0.243293	-1.021916	-2.416873	-0.363094	-1.911735	-0.323731	1.262451	0.795105	2.143657	2.300748	3.368956	2.281346	2.07444
4.067087	3.546861	-0.555218	-0.0147309999999999	-1.022285	-2.377745	-0.349738	-1.853818	-0.636558	0.817634	0.357172	1.7242	2.520717	3.628115	2.512707	2.115856
3.944111	3.256031	-0.942672	-0.346115	-0.804718	-1.978419	-0.193836	-1.532805	-0.59706	0.889611	0.428505	1.805783	2.103406	3.128368	2.040631	2.033336
4.058944	3.615908	-0.506054	0.00433300000000003	-1.052765	-2.506688	-0.389155	-1.963062	-0.734865	0.640197	0.197222	1.601153	2.368551	3.441247	2.288162	2.07444
3.975543	3.382437	-0.878012	-0.278162	-1.043024	-2.402211	-0.365794	-1.85777	-0.488477	1.071403	0.647666	1.943987	1.83618	2.887754	1.807797	2.012838
4.136442	3.674214	-0.490116	0.034765	-1.097452	-2.464791	-0.429007	-1.884846	-0.770717	0.636853	0.194953	1.583234	2.114459	3.164711	1.992084	2.007934
4.003071	3.425127	-0.781367	-0.211729	-1.140839	-2.512458	-0.452913	-1.857044	-0.597603	0.945766	0.520311	1.821115	1.814439	2.870463	1.702717	1.961981
3.976537	3.448991	-0.783083	-0.205033	-0.906972	-2.0028	-0.283426	-1.420771	-0.67638	0.859162	0.386361	1.787059	1.607618	2.705866	1.552574	1.961745
3.909882	3.379797	-0.941394	-0.327057	-1.046045	-2.356118	-0.37565	-1.660764	-0.580583	1.071403	0.534512	1.946893	1.653506	2.852442	1.668625	1.987264
4.117087	3.671295	-0.506054	0.055375	-1.242169	-2.79167	-0.518729	-1.97745	-0.325063	1.467577	0.885401	2.347526	1.815506	3.07465	1.834711	2.002819
3.964515	3.26975	-1.055439	-0.413931	-1.089541	-2.421732	-0.384506	-1.659897	-0.473815	1.246358	0.605775	2.143469	2.185193	3.519453	2.210823	2.054066
4.125236	3.55917	-0.571583	-0.0147309999999999	-1.100325	-2.462873	-0.379434	-1.624011	-0.793243	0.773221	0.08527	1.702988	2.485883	3.873065	2.596613	2.110523
4.009238	3.225906	-1.007208	-0.37922	-0.917127	-2.064908	-0.232572	-1.332733	-0.698958	0.962951	0.275347	1.862417	2.148414	3.499059	2.28263	2.07444
4.154851	3.55917	-0.522683	-0.0147309999999999	-1.113753	-2.591879	-0.390963	-1.75007	-0.359958	1.50162	0.829686	2.338335	1.687883	2.999661	1.872487	2.033336
4.010205	3.267088	-0.910162	-0.344458	-0.872165	-2.151496	-0.207421	-1.363114	-0.559082	1.15204	0.488657	2.046751	1.953134	3.296047	2.144111	2.048932
4.147695	3.499631	-0.554704	-0.0116080000000001	-1.149851	-2.721241	-0.393621	-1.812811	-0.333114	1.504869	0.797141	2.329203	2.055437	3.40519	2.18403	2.059203
4.074512	3.247133	-0.842365	-0.251946	-1.031664	-2.483179	-0.288846	-1.557681	-0.434937	1.351194	0.651711	2.19216	2.392943	3.760771	2.476253	2.069483
4.108945	3.328807	-0.74942	-0.18008	-0.921849	-2.330068	-0.193427	-1.348443	-0.409383	1.338576	0.609458	2.155835	2.25261	3.573111	2.40787	2.043799
4.263432	3.527242	-0.846525	-0.230783	-0.843524	-2.222127	-0.13886	-1.253873	-0.479303	1.266456	0.44096	1.969269	1.951585	3.220668	2.247942	2.054066
4.412394	3.757444	-0.732755	-0.14516	-0.996971	-2.517535	-0.281842	-1.597008	-0.333114	1.453013	0.728032	2.125263	2.239815	3.497387	2.566031	2.131353
4.394699	3.835916	-0.636926	-0.084625	-1.079322	-2.748219	-0.355232	-1.865523	-0.535208	1.085979	0.465014	1.814618	2.030409	3.199583	2.334274	2.110694
4.297493	3.769929	-0.553681	-0.0258929999999999	-1.104668	-2.758934	-0.384772	-1.950377	-0.505009	1.074574	0.493849	1.836016	2.103406	3.240418	2.26338	2.013051
4.265395	3.840741	-0.376171	0.065405	-1.024595	-2.656646	-0.314242	-1.861197	-0.555283	0.919537	0.435586	1.742079	2.018818	3.125619	2.057825	1.987264
4.22894	3.874594	-0.226688	0.192925	-0.863243	-2.365244	-0.186462	-1.61368	-0.382309	1.137957	0.680218	1.992343	2.092039	3.185473	2.006214	1.895651
4.10128	3.689558	-0.424181	0.0202950000000001	-0.943169	-2.634247	-0.257425	-1.812811	-0.453425	1.031749	0.532961	1.877519	2.252855	3.36851	2.078902	1.900723
4.090736	3.675716	-0.391543	0.053812	-1.079153	-2.803755	-0.325515	-1.919944	-0.456285	0.982153	0.521379	1.82675	2.123314	3.181284	1.918077	1.900723
4.074512	3.734157	-0.326166	0.103391	-1.07997	-2.803755	-0.325515	-1.918642	-0.448374	1.007336	0.560615	1.844187	2.206201	3.294074	1.994709	1.890582
4.124652	3.69492	-0.241102	0.164325	-1.185561	-3.076042	-0.418372	-2.102887	-0.474686	0.966527	0.602	1.880644	1.712879	2.744893	1.498734	1.799709
4.013527	3.6283	-0.390182	0.058604	-1.056063	-2.826132	-0.348167	-1.903416	-0.658709	0.676867	0.300622	1.58951	1.89486	2.907952	1.551357	1.77459
3.850124	3.322112	-0.763296	-0.241591	-0.967967	-2.657858	-0.300266	-1.764357	-0.434937	1.024937	0.685492	1.892356	1.966801	2.984097	1.579747	1.759543
3.792342	3.257411	-0.846194	-0.298799	-0.975062	-2.548217	-0.299393	-1.683836	-0.406517	1.11661	0.712381	1.94689	2.059243	3.132052	1.7147	1.804739
3.770113	3.186164	-0.927135	-0.331968	-1.095186	-2.748219	-0.370065	-1.831538	-0.213304	1.474254	1.002616	2.262161	2.177396	3.301154	1.86378	1.829923
3.800129	3.260789	-0.847924	-0.245029	-1.089541	-2.68611	-0.352518	-1.7222	-0.410792	1.233669	0.675453	2.079831	2.25433	3.463467	1.989614	1.890582
3.725697	3.143762	-0.926794	-0.281412	-1.010274	-2.485295	-0.273975	-1.50888	-0.525785	1.148514	0.506182	1.995053	2.27562	3.535852	2.029173	1.936281
3.818423	3.380396	-0.572068	0.014361	-1.120581	-2.672182	-0.35681	-1.656946	-0.625544	1.017684	0.332412	1.895765	2.47557	3.818621	2.178682	1.931194
3.735629	3.228617	-0.717096	-0.095946	-0.956452	-2.282717	-0.211917	-1.307238	-0.600027	1.070766	0.39047	1.944375	2.079352	3.388219	1.839465	1.900723
3.653049	3.120748	-0.831083	-0.183214	-1.059764	-2.485295	-0.288846	-1.50781	-0.43354	1.302983	0.653183	2.140614	2.162065	3.520721	1.8855	1.850108
3.624797	3.022555	-0.928166	-0.286031	-1.032164	-2.575641	-0.265165	-1.510924	-0.254708	1.547642	0.983253	2.372387	1.667289	2.948301	1.395166	1.759225
3.673967	3.198075	-0.686055	-0.123679	-0.941948	-2.509524	-0.214415	-1.446414	-0.372021	1.324061	0.802384	2.125592	2.056585	3.351205	1.702717	1.764556
3.643173	3.071402	-0.829535	-0.227522	-1.048453	-2.768317	-0.293274	-1.683836	-0.249721	1.435196	0.988178	2.237728	2.023258	3.260416	1.614752	1.674285
3.760756	3.283084	-0.604693	-0.054048	-0.931644	-2.571759	-0.218035	-1.491162	-0.486761	1.014095	0.610241	1.829171	2.15879	3.367162	1.692837	1.679264
3.757838	3.249534	-0.652857	-0.084625	-1.014866	-2.747152	-0.276663	-1.588751	-0.453425	1.061855	0.686222	1.780992	2.045559	3.202482	1.53379	1.61469
3.700253	3.12375	-0.799007	-0.238335	-0.861539	-2.413232	-0.200498	-1.339563	-0.474686	1.049416	0.633267	1.687985	1.884246	2.999661	1.348258	1.600223
3.659178	3.172486	-0.700061	-0.162627	-0.898842	-2.616492	-0.247804	-1.50888	-0.40506	1.185716	0.734672	1.744998	2.101894	3.219434	1.553828	1.654748
3.672976	3.263204	-0.636744	-0.118028	-0.81003	-2.416873	-0.175109	-1.345357	-0.379354	1.221227	0.759457	1.820258	2.22895	3.34875	1.657308	1.699547
3.772972	3.356287	-0.521198	0.023471	-0.942294	-2.659012	-0.269672	-1.573227	-0.355923	1.2947	0.817494	1.889633	1.930901	3.056013	1.414686	1.66469
3.766857	3.276883	-0.652619	-0.099074	-0.862326	-2.442392	-0.200425	-1.415058	-0.422868	1.143488	0.696281	1.841226	2.058399	3.184878	1.515122	1.684596
3.767835	3.395681	-0.506678	-0.00168699999999999	-0.944035	-2.634247	-0.280145	-1.601968	-0.475144	1.068405	0.67962	1.811776	2.114784	3.257563	1.517414	1.694216
3.706359	3.359124	-0.554056	-0.0609459999999999	-0.78574	-2.377745	-0.19251	-1.433455	-0.532114	0.962951	0.643988	1.768981	1.953493	3.018239	1.265687	1.654386
3.649837	3.31508	-0.570104	-0.078453	-0.97328	-2.792694	-0.363979	-1.850079	-0.53921	0.970601	0.717889	1.757063	2.104515	3.166776	1.315656	1.634522
3.609533	3.226924	-0.669654	-0.206432	-0.9892	-2.837083	-0.39882	-1.947638	-0.72152	0.636853	0.452674	1.517543	1.94113	2.943575	1.068842	1.624976
3.609533	3.152514	-0.799007	-0.322161	-1.037808	-2.947684	-0.455363	-2.093841	-0.692423	0.681213	0.514179	1.556671	2.18416	3.257122	1.268028	1.629933
3.629665	3.305757	-0.66869	-0.200628	-0.893252	-2.687595	-0.357632	-1.871871	-0.704379	0.698613	0.50408	1.586455	2.020454	3.071122	1.106158	1.619645
3.622618	3.246566	-0.733414	-0.251295	-1.047561	-2.968887	-0.491887	-2.124629	-0.580583	0.916501	0.726099	1.847478	1.824338	2.88717	0.974728	1.629933
3.650818	3.201236	-0.813968	-0.298799	-1.029863	-2.815842	-0.462309	-2.012191	-0.696342	0.848054	0.579603	1.748355	1.961447	3.088769	1.162988	1.684596
3.656895	3.19985	-0.813227	-0.297205	-1.052765	-2.773247	-0.482226	-1.996767	-0.787903	0.746373	0.489482	1.66444	1.846491	2.978508	1.076681	1.669663
3.576411	3.111695	-0.944511	-0.424457	-1.037808	-2.750175	-0.497015	-1.995826	-0.831657	0.698613	0.479296	1.640334	1.962715	3.163611	1.186951	1.659358
3.59852	3.12375	-0.895769	-0.372644	-1.034083	-2.840416	-0.529805	-2.09636	-0.815446	0.724799	0.531179	1.695096	1.812136	2.997141	1.057818	1.659358
3.606547	3.179765	-0.863327	-0.338038	-1.027092	-2.818316	-0.522883	-2.063804	-0.723952	0.859885	0.722137	1.866037	1.674969	2.850598	0.93998	1.654748
3.607535	3.163126	-0.863072	-0.352407	-1.008676	-2.747152	-0.484045	-1.978465	-0.854155	0.64645	0.468517	1.673106	1.767437	2.960974	1.020435	1.66469
3.599503	3.149488	-0.878727	-0.36822	-1.064034	-2.851289	-0.52494	-2.084584	-0.810435	0.730432	0.534512	1.736272	1.675727	2.850882	0.972128	1.684596
3.593452	3.07842	-0.862466	-0.385543	-1.104668	-2.959944	-0.538829	-2.198033	-0.85284	0.616257	0.391969	1.592269	1.628874	2.776903	0.976084	1.714518
3.569371	3.049742	-0.862113	-0.434417	-1.136484	-3.113851	-0.574386	-2.327309	-0.695051	0.865522	0.669967	1.793277	1.733879	2.870037	1.086203	1.709525
3.518173	2.950298	-0.910162	-0.502019	-1.051927	-3.009144	-0.544019	-2.266364	-0.639154	0.915034	0.725486	1.817481	1.724086	2.852938	1.016908	1.669307
3.519156	2.978886	-0.861728	-0.484749	-1.04481	-3.009144	-0.514496	-2.299794	-0.728719	0.768129	0.639623	1.720759	1.78265	2.908491	1.01474	1.659358
3.52423	2.932523	-0.875653	-0.495655	-1.07997	-3.048722	-0.517129	-2.344589	-0.700119	0.774237	0.632235	1.779058	1.975792	3.127101	1.1521	1.694561
3.605567	3.048296	-0.666436	-0.347739	-1.040111	-2.916791	-0.454529	-2.214364	-0.688194	0.791612	0.620822	1.808958	1.893015	3.070506	1.124987	1.714518
3.565513	2.959711	-0.761637	-0.393243	-0.884171	-2.675096	-0.348167	-1.988358	-0.681787	0.800167	0.524958	1.766209	1.782213	3.000191	1.047113	1.669663
3.580381	3.101305	-0.522683	-0.222395	-0.71788	-2.387886	-0.247626	-1.761988	-0.591265	0.934007	0.65977	1.889633	1.987808	3.202	1.215789	1.684596
3.507279	2.947481	-0.762222	-0.412292	-0.779707	-2.504496	-0.294138	-1.912797	-0.574916	0.909519	0.68885	1.899809	2.067109	3.293048	1.270516	1.709525
3.587415	3.128461	-0.571354	-0.27302	-0.952873	-2.878394	-0.416268	-2.202262	-0.620974	0.863609	0.704634	1.798984	2.251184	3.459525	1.430627	1.744516
3.517197	3.086118	-0.619925	-0.33947	-0.893252	-2.798197	-0.385451	-2.21131	-0.758021	0.629104	0.525303	1.606797	1.97282	3.125619	1.180607	1.714518
3.498086	3.150411	-0.588386	-0.346118	-0.888117	-2.818316	-0.410022	-2.287864	-0.930387	0.405883	0.286764	1.388065	1.731476	2.88661	0.977476	1.694561
3.43415	2.954725	-0.829535	-0.538003	-0.811776	-2.615415	-0.348259	-2.091038	-0.909672	0.483706	0.350585	1.469914	1.826404	3.036313	1.033067	1.664331
3.519156	3.104614	-0.71822	-0.411239	-0.937749	-2.788243	-0.451951	-2.263284	-0.937292	0.546835	0.357815	1.431556	2.046289	3.332991	1.27979	1.68923
3.488114	3.062296	-0.831617	-0.494676	-1.001389	-2.796196	-0.470623	-2.208459	-0.938457	0.61845	0.392983	1.494331	1.778257	3.108524	1.087443	1.704195
3.540245	3.23532	-0.620988	-0.311616	-1.16485	-3.00804	-0.600334	-2.376023	-1.128505	0.470785	0.0952069999999998	1.341153	1.881626	3.312372	1.236811	1.714181
3.484283	3.149488	-0.845829	-0.451714	-1.11976	-2.872231	-0.558769	-2.180546	-1.198875	0.431777	-0.04099	1.324508	1.664178	3.109745	1.051505	1.704195
3.546305	3.211698	-0.863548	-0.374051	-1.176192	-2.806643	-0.58825	-2.115017	-1.004564	0.754083	0.281566	1.664027	1.647356	3.154145	1.058701	1.679616
3.60363	3.293599	-0.863072	-0.369729	-1.274645	-2.922741	-0.632175	-2.185966	-1.22115	0.483706	-0.13815	1.359892	1.905325	3.51836	1.38316	1.759225
3.651809	3.301655	-0.944806	-0.411239	-1.060868	-2.490188	-0.429184	-1.727407	-0.941012	0.934007	0.311129	1.781193	1.819597	3.451533	1.273354	1.709186
3.676156	3.319452	-0.95926	-0.401336	-1.265839	-2.967974	-0.581958	-2.091038	-0.721474	1.22865	0.547177	2.019345	1.89843	3.580747	1.375034	1.719177
3.716346	3.511878	-0.750426	-0.187658	-1.075617	-2.619365	-0.414181	-1.738693	-0.704379	1.215933	0.527653	2.031303	1.962483	3.649001	1.40065	1.734179
3.667188	3.432224	-0.813227	-0.230783	-1.115516	-2.656646	-0.412743	-1.747804	-0.789115	1.001848	0.320988	1.853559	2.151092	3.822605	1.578741	1.729177
3.691253	3.476487	-0.619303	-0.114995	-1.256263	-2.983471	-0.501492	-1.955429	-0.761453	0.975433	0.316397	1.796024	2.044895	3.669596	1.515122	1.759225
3.673326	3.548381	-0.488294	-0.0116080000000001	-1.235014	-2.957125	-0.461492	-1.902101	-0.616379	1.139828	0.469944	1.914063	2.016754	3.640887	1.472155	1.704195
3.692216	3.525614	-0.522454	-0.068641	-1.073177	-2.703658	-0.318568	-1.702621	-0.452401	1.314021	0.717889	2.085824	2.000643	3.615438	1.461717	1.729177
3.689353	3.436813	-0.618943	-0.165787	-0.909495	-2.482031	-0.17599	-1.441146	-0.32102	1.456396	0.776969	2.176939	2.197733	3.803505	1.612674	1.749523
3.755931	3.539358	-0.47322	-0.0162410000000001	-0.964207	-2.676464	-0.208366	-1.632836	-0.145974	1.696799	1.014236	2.402584	2.075652	3.661115	1.522414	1.729507
3.760223	3.41848	-0.568817	-0.12768	-0.926599	-2.604656	-0.146781	-1.513466	-0.217471	1.589273	0.897618	2.295615	1.923351	3.452515	1.390608	1.744516
3.854481	3.541059	-0.320706	0.11663	-1.075935	-2.866248	-0.22116	-1.738876	-0.181054	1.642973	0.943899	2.341398	2.291642	3.822605	1.78084	1.819844
3.844898	3.423095	-0.472223	-0.046635	-0.973013	-2.696111	-0.146781	-1.597008	-0.160861	1.691846	0.930966	2.304802	2.128412	3.615438	1.7147	1.834966
3.860066	3.464276	-0.324481	0.0218660000000001	-0.832022	-2.457026	-0.043175	-1.404118	-0.237588	1.574689	0.775494	2.173861	2.31287	3.800735	1.904358	1.875389
3.817452	3.353014	-0.50547	-0.132448	-0.813485	-2.482031	-0.041501	-1.441146	-0.277542	1.461736	0.680218	2.1044	2.370823	3.819174	1.939886	1.890582
3.862961	3.496515	-0.342098	0.0187590000000001	-0.746746	-2.282717	0.040399	-1.29403	-0.181054	1.589273	0.864317	2.225545	2.33459	3.780147	1.925899	1.900723
3.824549	3.424689	-0.423881	-0.048187	-0.848058	-2.500758	-0.028229	-1.471023	-0.216098	1.503226	0.785608	2.140433	2.39554	3.839482	2.003922	1.870328
3.870064	3.464276	-0.357931	0.00433300000000003	-0.828659	-2.460715	0.004235	-1.426679	-0.208991	1.5118	0.780105	2.086048	2.229912	3.611223	1.80522	1.864996
3.843952	3.425127	-0.369904	-0.0190090000000001	-0.816788	-2.433101	0.00627499999999999	-1.435066	-0.13381	1.657619	0.942534	2.149591	2.287141	3.647436	1.843431	1.875119
3.77351	3.392319	-0.44862	-0.0468420000000001	-0.771682	-2.371835	0.032479	-1.409995	-0.226848	1.485396	0.795768	1.952774	2.247241	3.542751	1.711741	1.794681
3.815534	3.484424	-0.321953	0.046095	-0.842923	-2.417966	-0.008128	-1.445426	-0.137361	1.615789	0.892728	2.040506	2.374973	3.709732	1.763298	1.799709
3.77815	3.382437	-0.468094	-0.0365959999999999	-0.976192	-2.604656	-0.088786	-1.597008	-0.185133	1.547452	0.870813	2.010611	2.288365	3.592812	1.687508	1.804739
3.905614	3.704923	-0.110404	0.261913	-0.960951	-2.648127	-0.090396	-1.595688	-0.0620499999999999	1.766789	1.093736	2.236029	2.129759	3.466947	1.54389	1.759543
3.882353	3.664986	-0.193524	0.242641	-0.777983	-2.306456	0.048325	-1.279513	-0.181054	1.534134	0.784247	2.07981	2.44104	3.837642	1.820495	1.794681
3.885252	3.780429	-0.127842	0.327806	-0.758925	-2.254745	0.079513	-1.206293	-0.047031	1.749022	1.001881	2.286488	2.459858	3.845322	1.777159	1.749523
3.76302	3.543904	-0.405347	0.129032	-0.725933	-2.165209	0.109505	-1.14009	-0.039554	1.72382	0.976734	2.311846	2.541633	3.93941	1.845348	1.754211
3.7759	3.623583	-0.325897	0.205831	-0.868131	-2.40905	-0.00948599999999999	-1.352502	-0.074307	1.72611	0.975932	2.249923	2.729209	4.16608	2.049887	1.799709
3.720511	3.429302	-0.584779	-0.00666500000000003	-0.812635	-2.281492	0.060758	-1.22806	-0.257612	1.42072	0.652439	1.991993	2.866436	4.332143	2.262163	1.850108
3.85586	3.777288	-0.193126	0.313338	-0.899398	-2.499393	-0.00867899999999999	-1.404118	-0.022579	1.803058	1.026625	2.320131	2.809547	4.258421	2.223109	1.829923
3.777207	3.525853	-0.518314	0.0478530000000001	-0.655729	-2.037957	0.184615	-1.014828	-0.166408	1.551377	0.728211	2.113989	2.92783	4.411116	2.34375	1.860214
3.893339	3.678804	-0.423881	0.173711	-0.605674	-1.92635	0.250273	-0.848924	-0.062514	1.70578	0.805808	2.220007	3.211138	4.75421	2.659956	1.936527
3.861023	3.416998	-0.764659	-0.09268	-0.519778	-1.679071	0.36306	-0.568448	0.029423	1.929637	0.882768	2.298988	2.880663	4.373081	2.413193	1.916204
4.012163	3.73571	-0.292875	0.277962	-0.725933	-2.07692	0.224036	-0.876669	0.227918	2.262764	1.234436	2.596115	2.503686	3.974218	2.155098	1.911129
3.926017	3.499631	-0.617661	0.01264	-0.650469	-2.042245	0.268743	-0.822551	0.320652	2.41857	1.414312	2.719205	2.085724	3.4876	1.795511	1.870602
4.092676	3.891536	-0.176924	0.384251	-0.823177	-2.414506	0.115782	-1.177607	0.211108	2.237351	1.273636	2.592683	2.31622	3.728002	1.985136	1.895915
3.947399	3.554885	-0.633087	0.0162040000000001	-0.612012	-2.017495	0.267029	-0.87031	-0.010343	1.871756	0.912032	2.259067	2.736772	4.160516	2.313578	1.921282
4.054018	3.817437	-0.324481	0.26698	-0.85852	-2.434472	0.085792	-1.274878	0.198801	2.164536	1.272281	2.565014	2.658392	4.089727	2.238882	1.870328
4.005446	3.708829	-0.485267	0.139876	-0.648514	-1.900969	0.256566	-0.81245	0.19276	2.154497	1.210184	2.567238	2.261897	3.696125	1.895292	1.824882
4.033565	3.809752	-0.326401	0.258711	-0.685301	-2.018558	0.207607	-0.916764	0.298965	2.369019	1.393948	2.737884	2.306443	3.769647	1.997967	1.834966
4.002682	3.923487	-0.172012	0.396988	-0.651782	-1.941087	0.230374	-0.805664	0.364025	2.467048	1.457317	2.794247	2.576329	4.072355	2.218454	1.845058
3.935052	3.865272	-0.243253	0.329408	-0.560125	-1.749024	0.304326	-0.617443	0.316196	2.431633	1.433471	2.746807	2.747542	4.236274	2.397484	1.895651
3.898151	3.838257	-0.303384	0.293915	-0.842474	-2.277453	0.077102	-1.071012	0.185054	2.217455	1.28203	2.558903	2.650601	4.081401	2.335406	1.910871
3.895638	3.820472	-0.308728	0.228219	-0.806303	-2.169401	0.078702	-0.991662	-0.03801	1.846571	0.929258	2.23209	2.3026	3.670245	1.985136	1.829923
3.857239	3.764985	-0.407066	0.124079	-0.666538	-1.907838	0.172972	-0.817275	0.086258	2.033037	1.152521	2.405711	2.510201	3.874197	2.127463	1.829923
3.921783	3.961938	-0.162458	0.320326	-0.651915	-2.001689	0.170301	-0.824425	0.0394	1.930942	1.086801	2.323357	2.641342	3.989729	2.139447	1.779609
3.89102	3.930382	-0.190024	0.320185	-0.699336	-2.078347	0.136279	-0.889603	0.252606	2.281075	1.383	2.639227	2.53795	3.897532	2.016484	1.744516
3.846454	4.035648	-0.026465	0.487546	-0.566144	-1.85647	0.239882	-0.641467	0.309804	2.348817	1.41668	2.706922	2.594877	3.991075	2.000772	1.709186
3.732632	3.813098	-0.25409	0.306044	-0.449493	-1.582812	0.335041	-0.37139	0.305317	2.290386	1.354866	2.68201	2.734593	4.140137	2.107198	1.734508
3.828648	3.975218	-0.024705	0.491032	-0.621793	-1.891873	0.235193	-0.615217	0.41365	2.488476	1.56367	2.873825	2.65628	4.088817	2.100985	1.714518
3.827776	3.917895	-0.041462	0.457152	-0.40809	-1.491545	0.393857	-0.26879	0.438605	2.506153	1.566041	2.910207	2.459858	3.865543	1.928648	1.684596
3.951744	4.115124	0.220731	0.672158	-0.361567	-1.521327	0.442512	-0.245228	0.432535	2.463275	1.594056	2.904708	2.650062	4.094939	2.096155	1.694216
3.924055	4.028338	0.111328	0.566233	-0.436467	-1.737009	0.413785	-0.385717	0.592612	2.716333	1.8157	3.130448	2.541633	3.959672	2.046521	1.709525
3.98838	4.124263	0.222639	0.659245	-0.394241	-1.715499	0.443253	-0.387225	0.486804	2.536913	1.607735	2.974819	2.771437	4.199019	2.311254	1.794681
3.909762	3.909485	-0.00342500000000001	0.484426	-0.454637	-1.785494	0.405046	-0.450353	0.424548	2.413307	1.51576	2.855139	2.805238	4.196704	2.384312	1.824882
3.947399	3.884009	-0.045375	0.429338	-0.421738	-1.642663	0.448157	-0.313072	0.444618	2.457185	1.569403	2.874433	2.492805	3.805154	2.100985	1.77459
3.878595	3.782042	-0.160699	0.276365	-0.518405	-1.875228	0.339836	-0.58847	0.478777	2.510569	1.648953	2.808985	2.673431	3.923273	2.233716	1.759543
3.948346	4.003615	0.136003	0.476468	-0.520652	-1.973076	0.308102	-0.71514	0.337981	2.302058	1.524105	2.611258	2.61343	3.846331	2.20002	1.744191
3.819821	3.800879	-0.128494	0.254173	-0.515962	-1.991114	0.268396	-0.825544	0.32217	2.262764	1.510233	2.562106	2.950974	4.161881	2.498574	1.804441
3.842651	3.799747	-0.179139	0.209823	-0.485695	-1.952376	0.274145	-0.801419	0.449342	2.560328	1.772243	2.780813	2.915796	4.155649	2.453954	1.764556
3.902758	3.78878	-0.178463	0.236573	-0.653142	-2.174136	0.156224	-0.982174	0.28866	2.373434	1.558735	2.654354	2.799069	4.050282	2.340748	1.799709
4.053056	4.050619	0.168968	0.510459	-0.93059	-2.656646	-0.03694	-1.338307	0.348889	2.588483	1.698259	2.83033	3.038145	4.375731	2.545485	1.809772
3.977823	3.864982	-0.096433	0.33655	-0.849694	-2.387886	0.0259	-1.102081	0.238064	2.458561	1.544537	2.777942	2.737639	4.085626	2.239878	1.779609
4.023517	4.082058	0.185486	0.596308	-0.746746	-2.147969	0.109505	-0.875329	0.0937399999999999	2.243046	1.324632	2.642493	2.975548	4.411116	2.410104	1.759543
3.869637	3.820472	-0.109454	0.350453	-0.562761	-1.837269	0.22182	-0.612552	-0.048477	2.007908	1.070157	2.497486	2.865325	4.273646	2.278896	1.764556
3.845852	3.8441	-0.112181	0.376213	-0.493775	-1.726113	0.260769	-0.515917	0.026402	2.136769	1.232808	2.608348	2.98422	4.407674	2.399843	1.779609
3.808435	3.625202	-0.374772	0.173711	-0.545751	-1.860134	0.230622	-0.63217	0.129433	2.257329	1.379063	2.731501	3.028506	4.436284	2.407367	1.739184
3.890423	3.7301	-0.243876	0.273277	-0.591442	-1.976028	0.219019	-0.736732	0.132612	2.223694	1.336957	2.700163	2.911319	4.284651	2.286652	1.729507
3.865288	3.726721	-0.160699	0.311713	-0.558061	-1.922518	0.247812	-0.708647	0.302059	2.442588	1.614221	2.90231	2.871277	4.184491	2.255675	1.724509
3.858174	3.737292	-0.109946	0.348767	-0.503619	-1.928594	0.281264	-0.699285	0.178764	2.203236	1.392079	2.677793	2.564951	3.806979	1.913688	1.66469
3.879523	3.73571	-0.026465	0.368202	-0.38678	-1.815524	0.347097	-0.583247	0.244922	2.301317	1.537444	2.766465	2.705215	3.880866	1.983127	1.644816
3.843013	3.749561	0.00758800000000004	0.384251	-0.39265	-1.946722	0.313613	-0.695553	0.325257	2.370918	1.627828	2.815473	2.637411	3.714227	1.896147	1.635266
3.793935	3.556286	-0.236672	0.136122	-0.312735	-1.875228	0.354151	-0.657218	0.195522	2.12221	1.441929	2.630229	2.872453	3.938452	2.084253	1.654748
3.90619	3.65889	-0.072982	0.252798	-0.344599	-1.922518	0.334247	-0.744208	0.238737	2.187868	1.506981	2.703739	2.918383	3.993429	2.170824	1.669663
3.969742	3.663419	-0.059366	0.263567	-0.347045	-1.929623	0.339124	-0.734531	0.297444	2.275597	1.621995	2.861477	2.814003	3.976923	2.133611	1.64445
3.965119	3.771345	0.110542	0.42512	-0.486759	-2.257543	0.208997	-0.926377	0.415155	2.540118	1.875474	3.063567	2.855133	4.021011	2.215423	1.639853
3.952666	3.820472	0.19008	0.503661	-0.377178	-2.036731	0.270001	-0.762582	0.263424	2.400215	1.680428	2.895791	3.052133	4.204809	2.355821	1.674285
3.823295	3.568719	-0.169766	0.220979	-0.250116	-1.723836	0.346261	-0.530622	0.109561	2.258347	1.4503	2.665648	2.726719	3.870084	2.078666	1.634522
3.867175	3.664986	0.022694	0.38093	-0.5095	-2.217195	0.116597	-0.995519	0.094069	2.310398	1.504711	2.626566	2.937751	4.094939	2.285082	1.659358
3.722912	3.37286	-0.419034	0.03024	-0.414545	-1.995828	0.193402	-0.799115	-0.157262	1.897121	1.076515	2.274759	2.825436	3.975977	2.18483	1.674285
3.824549	3.68039	-0.027917	0.363208	-0.429913	-1.95137	0.194255	-0.749236	0.045035	2.255591	1.446612	2.59888	2.505819	3.673278	1.913688	1.669307
3.714907	3.528659	-0.270762	0.183754	-0.311088	-1.681314	0.290948	-0.515917	-0.045556	2.115741	1.277908	2.49663	2.67547	3.885856	2.07935	1.669307
3.708297	3.568494	-0.243253	0.205831	-0.496402	-2.085618	0.142895	-0.881695	0.252606	2.582508	1.765264	2.921206	2.290381	3.437832	1.739431	1.64445
3.60078	3.374311	-0.518877	-0.024224	-0.317437	-1.705252	0.271372	-0.58554	-0.0226	2.1503	1.334946	2.539656	2.625417	3.750514	2.048128	1.704536
3.743673	3.678804	-0.110828	0.311713	-0.67268	-2.395479	0.010439	-1.225669	-0.086498	2.004648	1.238602	2.368888	2.835706	3.935843	2.255675	1.734508
3.585728	3.330228	-0.583712	-0.140121	-0.493775	-2.064908	0.139305	-0.984404	-0.370196	1.578122	0.779298	1.931759	3.072228	4.162632	2.463757	1.744516
3.687098	3.666581	-0.193889	0.173711	-0.63071	-2.395479	0.0175	-1.276086	-0.148716	1.89645	1.179066	2.25914	2.813386	3.861703	2.168928	1.694561
3.645039	3.614457	-0.289313	0.113111	-0.405585	-1.971967	0.186303	-0.863498	-0.190821	1.882835	1.010842	2.18383	2.607186	3.668991	2.020558	1.699547
3.605567	3.566869	-0.374436	0.069818	-0.272268	-1.730705	0.303383	-0.606744	-0.103706	2.067577	1.141633	2.366037	2.8773	4.007145	2.29564	1.744516
3.629967	3.574455	-0.35569	0.077871	-0.420947	-2.018558	0.188891	-0.834254	0.0516230000000001	2.393329	1.441983	2.68211	2.898528	4.042707	2.338178	1.759225
3.695494	3.76342	-0.126126	0.281262	-0.557708	-2.158771	0.074758	-0.947361	-0.189281	2.079161	1.080073	2.409564	2.843699	4.02804	2.241987	1.699204
3.597086	3.677245	-0.208363	0.176919	-0.551597	-2.190795	0.051181	-0.957692	-0.121638	2.151433	1.228306	2.506673	2.786037	3.934325	2.102902	1.64445
3.605567	3.735381	-0.162458	0.198645	-0.448845	-1.999551	0.118985	-0.771727	-0.0919800000000001	2.196058	1.349049	2.56227	2.468996	3.597224	1.762347	1.580064
3.538779	3.631213	-0.25664	0.111404	-0.475459	-2.079711	0.081156	-0.842598	-0.155736	2.079161	1.227947	2.492143	2.658392	3.805154	1.895292	1.585005
3.553344	3.745625	-0.162127	0.182464	-0.454214	-2.08456	0.09247	-0.850089	-0.203958	2.026019	1.146723	2.402563	2.849555	4.015458	2.045775	1.599838
3.495571	3.55917	-0.420839	-0.00834699999999999	-0.641282	-2.41572	-0.035286	-1.175143	-0.143168	2.134984	1.217338	2.47907	3.020295	4.197771	2.2431	1.679616
3.561354	3.671533	-0.310133	0.081497	-0.743268	-2.530995	-0.096114	-1.296257	-0.291144	1.913369	0.960803	2.265277	2.854847	4.046566	2.121669	1.679616
3.548595	3.682004	-0.309391	0.085846	-0.777107	-2.462873	-0.104018	-1.26048	-0.214709	2.013074	1.10362	2.365826	2.858131	4.030222	2.100085	1.654748
3.613594	3.821728	-0.162695	0.212264	-0.698641	-2.332881	-0.042448	-1.16641	-0.24255	1.987962	1.098182	2.326422	3.012805	4.163426	2.2202	1.654748
3.589113	3.786689	-0.191194	0.146672	-0.716258	-2.368061	-0.05023	-1.220496	-0.429271	1.651681	0.747491	2.014931	2.608055	3.74492	1.848135	1.619645
3.569754	3.797526	-0.194776	0.151603	-0.660302	-2.352576	-0.031021	-1.17994	-0.184644	2.018571	1.176704	2.381359	2.566771	3.676011	1.758156	1.589946
3.582046	3.777288	-0.226314	0.106492	-0.54023	-2.146671	0.059918	-1.008627	-0.211883	1.998533	1.11674	2.329203	2.77505	3.915914	1.914607	1.619645
3.624477	3.903952	-0.092769	0.247561	-0.633215	-2.325466	0.016655	-1.173861	-0.115909	2.14045	1.277305	2.460788	2.636174	3.749584	1.809593	1.609737
3.566116	3.668488	-0.387722	0.01264	-0.759727	-2.520521	-0.058114	-1.367966	-0.03801	2.239962	1.410953	2.581473	2.696816	3.846331	1.892953	1.604786
3.61584	3.877618	-0.144088	0.191325	-0.884958	-2.805227	-0.15382	-1.627716	-0.187559	1.945927	1.196173	2.371971	2.715111	3.84093	1.813027	1.589946
3.548455	3.775996	-0.267724	0.072908	-0.79581	-2.670636	-0.119409	-1.542755	-0.324633	1.687754	0.926749	2.110203	2.696176	3.827137	1.706834	1.510695
3.570682	3.831346	-0.192694	0.108095	-0.659045	-2.434472	-0.036117	-1.369295	-0.211883	1.822884	1.138566	2.28342	2.701768	3.857893	1.71269	1.545538
3.503534	3.625498	-0.404286	-0.090995	-0.446117	-2.106147	0.09247	-1.080039	-0.474686	1.427802	0.711577	1.970948	2.878036	4.083703	1.86676	1.585005
3.417283	3.505531	-0.619631	-0.235418	-0.483901	-2.177045	0.090732	-1.10328	-0.298879	1.761889	0.961625	2.228915	3.019932	4.235143	1.987299	1.619645
3.473531	3.46787	-0.66542	-0.243293	-0.572546	-2.170677	0.063322	-1.078848	-0.370698	1.673932	0.859875	2.168085	2.86335	4.099865	1.857241	1.649781
3.521354	3.634238	-0.424181	-0.0147309999999999	-0.709391	-2.396534	-0.013396	-1.232447	-0.351798	1.737935	0.890649	2.214234	2.971245	4.291421	1.989614	1.654386
3.387344	3.483038	-0.420839	0.03024	-0.839212	-2.500758	-0.075878	-1.242488	-0.36127	1.827575	0.914144	2.262574	2.841393	4.215916	1.903198	1.669663
3.36445	3.437592	-0.402446	0.0514720000000002	-0.803087	-2.384874	-0.058936	-1.135977	-0.543277	1.587668	0.611546	2.070957	2.851424	4.233427	1.958968	1.694216
3.430408	3.477769	-0.303384	0.137982	-0.768565	-2.274458	-0.021995	-1.037067	-0.46973	1.680553	0.694886	2.198164	2.915793	4.334288	2.016484	1.669307
3.387344	3.342543	-0.536375	-0.00666500000000003	-0.771682	-2.349281	-0.017788	-1.111396	-0.409459	1.77375	0.778381	2.290037	2.924218	4.42703	2.088289	1.709186
3.381259	3.201236	-0.715599	-0.159329	-0.808248	-2.352576	-0.00545500000000002	-1.084471	-0.33035	1.924243	0.875186	2.430114	2.878842	4.410336	2.17183	1.739511
3.476309	3.313678	-0.520369	-0.02252	-0.864185	-2.397527	-0.012495	-1.118094	-0.279006	1.96593	0.913553	2.485674	2.808606	4.296331	2.154079	1.754532
3.440227	3.172486	-0.618549	-0.126021	-0.789511	-2.241927	0.061598	-0.969635	-0.217471	2.044144	0.997798	2.522015	2.751056	4.20293	2.134487	1.739511
3.447252	3.210873	-0.518314	-0.0699620000000001	-0.817146	-2.350441	0.04478	-1.032848	-0.216719	1.989949	1.031536	2.479998	2.674105	4.062316	1.960284	1.714181
3.34434	3.138472	-0.616081	-0.206644	-0.824243	-2.462873	0.00953399999999999	-1.133866	-0.29738	1.745775	0.862102	2.265881	2.560413	3.876977	1.698196	1.609737
3.342492	3.309636	-0.469327	-0.140121	-0.761073	-2.482031	-0.00900499999999999	-1.17994	-0.13381	1.973385	1.192631	2.522015	2.66444	3.931309	1.685072	1.589946
3.367236	3.253353	-0.584262	-0.227522	-0.782221	-2.566918	-0.025698	-1.259293	-0.106616	1.978576	1.253129	2.577509	2.538425	3.765352	1.511964	1.535692
3.390155	3.24232	-0.553274	-0.213355	-0.782221	-2.545753	-0.040654	-1.258073	-0.155339	1.922518	1.227613	2.543574	2.694354	3.900045	1.592453	1.535692
3.419163	3.268405	-0.405347	-0.09268	-0.850499	-2.630188	-0.086315	-1.286565	-0.241717	1.847104	1.097811	2.430115	2.834075	4.087132	1.763298	1.570189
3.400041	3.279928	-0.309919	-0.00168699999999999	-0.78385	-2.476841	-0.026548	-1.10627	-0.279006	1.844661	0.993288	2.403082	2.751573	4.050282	1.711741	1.580064
3.368179	3.264721	-0.260404	0.033285	-0.891388	-2.761909	-0.137268	-1.335697	-0.272578	1.924243	0.98886	2.460788	2.73429	4.082186	1.77227	1.64445
3.354169	3.248036	-0.259806	0.069818	-0.639616	-2.237457	0.042129	-0.880489	-0.315403	1.927803	0.956925	2.482474	2.585616	3.935843	1.629156	1.604786
3.33827	3.145153	-0.438849	-0.0450480000000001	-0.488313	-1.92635	0.160543	-0.599167	-0.25904	2.033037	1.046188	2.636027	2.834075	4.259251	1.882328	1.639484
3.375188	3.145153	-0.422779	-0.00999400000000006	-0.580619	-2.015182	0.12251	-0.680995	-0.238055	2.097444	1.053164	2.686593	2.825436	4.301916	1.895292	1.634892
3.41822	3.142399	-0.438392	0.00921300000000003	-0.57083	-1.925134	0.174713	-0.58205	-0.317125	1.979992	0.920259	2.594842	2.8598	4.376705	1.964587	1.659358
3.522305	3.345396	-0.210113	0.226592	-0.573391	-1.968271	0.179207	-0.611244	-0.295866	2.030555	0.928406	2.600258	2.815291	4.322492	1.927854	1.629561
3.488529	3.360584	-0.242891	0.192925	-0.552947	-1.971967	0.204832	-0.584411	-0.421798	1.784015	0.724756	2.38866	2.872453	4.358237	1.997967	1.654748
3.542482	3.459735	-0.111217	0.260295	-0.510302	-1.96402	0.197996	-0.624299	-0.415695	1.81228	0.7554	2.375597	2.8326	4.257634	1.9685	1.654748
3.448195	3.201236	-0.439272	-0.027528	-0.534603	-2.034094	0.177514	-0.727117	-0.379354	1.848516	0.814842	2.369988	2.479411	3.82183	1.664161	1.644816
3.451066	3.148016	-0.50547	-0.116529	-0.692908	-2.345442	0.053685	-0.994266	-0.277542	2.018571	1.038263	2.504301	2.270382	3.541907	1.528398	1.639853
3.460379	3.098718	-0.535371	-0.141835	-0.791074	-2.523267	-0.033602	-1.208839	-0.269751	2.014869	1.070157	2.497857	2.201545	3.449698	1.426043	1.620021
3.535437	3.26975	-0.307478	0.0251110000000001	-0.846383	-2.591879	-0.075012	-1.243687	-0.175652	2.177904	1.209438	2.623619	2.653629	3.989729	1.852383	1.66469
3.491084	3.217274	-0.41536	-0.0272840000000001	-0.879235	-2.55616	-0.098248	-1.17784	-0.25174	2.095407	1.020738	2.588112	2.594491	3.970597	1.801642	1.644816
3.49038	3.371435	-0.176513	0.175297	-0.773362	-2.411898	-0.056446	-1.024255	-0.170284	2.272131	1.156432	2.712889	2.523964	3.989729	1.748785	1.649781
3.35471	3.192109	-0.434264	0.0162040000000001	-0.569959	-1.993595	0.079199	-0.680995	-0.09331	2.409985	1.302419	2.898567	2.60469	4.140691	1.936362	1.684246
3.379403	3.286231	-0.357551	0.056972	-0.633215	-2.055526	0.046615	-0.775689	-0.170971	2.325686	1.121556	2.782014	2.706951	4.283534	2.028286	1.669307
3.366109	3.149707	-0.548819	-0.083912	-0.725123	-2.210737	0.002529	-0.890996	-0.075709	2.436941	1.306663	2.914096	3.019259	4.581118	2.311254	1.744516
3.419749	3.224591	-0.453364	0.01264	-0.809558	-2.384874	-0.029057	-1.052613	-0.284697	2.065776	0.931635	2.586609	2.926469	4.488119	2.255675	1.739511
3.430329	3.23105	-0.44862	-0.00963000000000003	-0.817738	-2.47838	-0.037686	-1.150733	-0.105169	2.284914	1.152521	2.772135	2.854067	4.390213	2.207411	1.739184
3.519474	3.401791	-0.226314	0.159292	-0.607355	-2.187984	0.118249	-0.892357	-0.178253	2.138591	1.001881	2.605168	2.785086	4.239895	2.100985	1.709186
3.469048	3.290844	-0.335974	0.0710000000000002	-0.532625	-2.107373	0.17027	-0.829116	0.080348	2.529013	1.437073	2.939274	2.87435	4.285812	2.129803	1.679264
3.437437	3.243708	-0.390182	0.00755099999999997	-0.652575	-2.318353	0.079513	-1.071012	-0.101442	2.253892	1.202335	2.663493	3.080547	4.467128	2.309087	1.729177
3.417105	3.134787	-0.482585	-0.0644549999999999	-0.780458	-2.510855	-0.033874	-1.27793	-0.117607	2.230836	1.244261	2.651354	2.831282	4.142622	2.035116	1.694561
3.498353	3.260253	-0.341415	0.056972	-0.766153	-2.476841	-0.044	-1.303395	-0.280673	1.98658	1.02839	2.439413	3.017887	4.347967	2.196621	1.724176
3.486707	3.286231	-0.324042	0.076191	-0.703132	-2.304111	-0.010735	-1.177607	-0.284503	2.033186	1.093299	2.482924	2.724037	4.008876	1.951876	1.679616
3.572563	3.421529	-0.145346	0.255651	-0.619476	-2.137605	0.035389	-1.051146	-0.245467	2.142347	1.185245	2.642449	2.735976	4.08494	1.985136	1.689578
3.516712	3.295884	-0.338552	0.132508	-0.619188	-1.992385	0.050947	-0.979809	-0.493823	1.734505	0.774779	2.320131	2.854067	4.217632	2.087222	1.704536
3.552379	3.36513	-0.27736	0.186736	-0.770712	-2.242892	-0.060796	-1.200966	-0.463113	1.868356	0.90597	2.378059	2.721373	4.081401	1.957689	1.719512
3.514017	3.29331	-0.353942	0.151979	-0.912086	-2.387886	-0.163689	-1.351161	-0.425626	1.891595	0.944606	2.421043	2.638365	3.986428	1.925899	1.709186
3.47876	3.426492	-0.175591	0.281262	-0.995309	-2.540111	-0.252132	-1.495329	-0.61778	1.586101	0.690497	2.158807	2.743662	4.156069	2.001952	1.729177
3.335398	3.274693	-0.399525	0.108311	-1.04481	-2.651203	-0.324672	-1.658345	-0.540243	1.720048	0.913151	2.290037	2.628755	4.007677	1.783997	1.644816
3.345275	3.343956	-0.357931	0.141679	-0.79134	-2.217195	-0.143481	-1.309636	-0.733394	1.359464	0.599036	2.028582	3.042388	4.425941	2.091721	1.66469
3.326646	3.312303	-0.405827	0.093791	-0.937749	-2.497967	-0.235551	-1.482679	-0.591265	1.5714	0.749078	2.182963	2.92783	4.354497	2.016484	1.639484
3.355124	3.325665	-0.343337	0.132638	-0.939613	-2.416873	-0.215331	-1.45783	-0.452401	1.81596	1.008131	2.396399	2.560413	3.972636	1.746746	1.64445
3.01056	2.961071	-0.666894	-0.110186	-1.018371	-2.457026	-0.271423	-1.450511	-0.561878	1.878997	0.786312	2.213654	2.474995	3.925553	1.790074	1.739511
2.785067	2.965312	-0.390929	0.104925	-0.938584	-2.298694	-0.208366	-1.266949	-0.625544	1.994032	0.655509	2.126012	2.798544	4.279516	2.168037	1.845058
2.603135	2.539404	-0.77861	-0.243293	-0.889042	-2.174136	-0.158407	-1.096906	-0.58349	2.073707	0.707777	2.215619	2.784636	4.257634	2.237924	1.86527
2.812686	2.764447	-0.35569	0.077871	-0.815976	-2.165209	-0.129395	-1.103511	-0.645008	1.927235	0.559489	2.108285	2.746838	4.159902	2.172876	1.875389
2.904425	2.5908	-0.532278	-0.119045	-0.697668	-2.078347	-0.034448	-1.041208	-0.388469	2.262646	0.96689	2.46573	2.46581	3.820413	1.916559	1.829923
3.080065	2.763109	-0.24057	0.061972	-0.696043	-2.114718	0.011739	-1.082135	-0.134361	2.559636	1.318418	2.804297	2.709506	4.056211	2.061859	1.794681
3.154153	2.75448	-0.168951	0.09256	-0.88358	-2.571422	-0.095802	-1.483039	-0.062514	2.529057	1.344803	2.838905	2.614061	3.902955	1.978016	1.779609
3.244204	2.970693	0.075397	0.254613	-0.748209	-2.444558	0.001524	-1.374637	-0.148072	2.344101	1.213528	2.652255	2.640803	3.888159	1.943113	1.729507
3.109665	2.643693	-0.382052	-0.162355	-0.621798	-2.371835	0.068678	-1.343138	0.014147	2.534881	1.555021	2.921206	2.409065	3.553565	1.62053	1.649781
3.215328	2.939673	0.0102370000000001	0.102606	-0.60252	-2.476841	0.0275	-1.483988	-0.132408	2.260914	1.354155	2.716036	2.865742	4.039168	1.994052	1.674285
3.161144	2.838377	-0.101802	-0.00963000000000003	-0.704112	-2.717088	-0.076279	-1.709657	-0.343835	1.96045	1.033211	2.454567	2.727086	3.896783	1.865729	1.714518
3.187366	2.805049	-0.140573	-0.0383550000000001	-0.609805	-2.434472	-0.007042	-1.453079	-0.583139	1.653606	0.664693	2.143751	3.188097	4.42703	2.330334	1.779609
3.148028	2.646049	-0.367791	-0.218773	-0.498942	-2.192109	0.060758	-1.210063	-0.49883	1.850497	0.848789	2.351369	2.633381	3.841721	1.796439	1.704536
3.155885	2.872879	-0.107145	0.03024	-0.472974	-2.081015	0.069531	-1.094517	-0.734865	1.545828	0.561313	2.09812	3.092215	4.369574	2.176243	1.724509
2.987756	2.560261	-0.628562	-0.335661	-0.447916	-2.022944	0.070488	-1.07159	-0.64588	1.768764	0.737585	2.240766	2.631019	3.876977	1.680654	1.649781
3.138514	2.858014	-0.207286	0.028496	-0.784232	-2.597073	-0.173325	-1.575305	-0.492305	2.03766	1.025896	2.43351	2.89003	4.159902	1.886633	1.66469
3.011218	2.600815	-0.57972	-0.300715	-0.8215	-2.570638	-0.183879	-1.585332	-0.6831	1.660902	0.67962	2.110102	2.996238	4.292375	1.920922	1.669663
3.074015	2.765812	-0.455753	-0.18008	-0.727222	-2.374047	-0.093453	-1.42558	-0.794587	1.440281	0.446346	1.904415	3.210442	4.522248	2.092943	1.679616
2.993025	2.579793	-0.779152	-0.42964	-0.53138	-1.998713	0.063438	-1.118094	-0.843558	1.333418	0.321879	1.76001	3.160646	4.443287	2.01262	1.679264
3.118528	2.902664	-0.324042	-0.0609459999999999	-0.763655	-2.50331	-0.103144	-1.552024	-0.557903	1.745672	0.792025	2.149591	2.640984	3.856138	1.516249	1.615069
3.038337	2.803735	-0.552359	-0.227522	-0.620068	-2.217195	0.008633	-1.29403	-0.745308	1.428916	0.5198	1.886744	3.054126	4.271802	1.79002	1.624602
3.03139	2.845723	-0.487872	-0.14516	-0.698507	-2.435785	-0.060064	-1.503204	-0.568596	1.693461	0.837437	2.179942	2.864672	4.025299	1.553828	1.585005
2.907103	2.582385	-0.845432	-0.465899	-0.674568	-2.399333	-0.031767	-1.495298	-0.448025	1.824598	0.991799	2.317524	2.535107	3.649001	1.199551	1.531186
3.08281	2.849755	-0.407066	-0.080047	-0.780554	-2.545753	-0.060064	-1.617412	-0.572435	1.617263	0.777881	2.143657	2.746512	3.874197	1.384342	1.545538
3.043472	2.675538	-0.616641	-0.274775	-0.587829	-2.282717	0.088032	-1.375455	-0.673734	1.430432	0.609925	1.9741	2.995555	4.157896	1.585338	1.575521
3.1743	2.91495	-0.2416	0.00921300000000003	-0.687204	-2.515955	0.037029	-1.611033	-0.579278	1.521071	0.713419	2.091968	2.876635	3.987146	1.468354	1.555393
3.074932	2.935302	-0.259455	0.00433300000000003	-0.512651	-2.248426	0.131606	-1.414239	-0.519245	1.610503	0.873216	2.195133	2.938068	4.046566	1.447404	1.501296
2.946053	2.769216	-0.482585	-0.18372	-0.597509	-2.535255	0.020423	-1.706962	-0.748176	1.215933	0.537044	1.889343	2.880663	3.915914	1.244163	1.413301
3.04713	3.003252	-0.193126	0.023471	-0.475459	-2.256174	0.091609	-1.471023	-0.713663	1.301256	0.637482	1.958743	2.81635	3.816521	1.102362	1.408432
2.992129	2.897576	-0.369904	-0.101485	-0.415382	-2.078347	0.114564	-1.340788	-0.656515	1.458141	0.806626	2.116156	2.902861	3.933632	1.145483	1.388505
2.977347	2.985613	-0.273264	0.0109090000000001	-0.434886	-2.098275	0.075754	-1.304708	-0.563876	1.683628	0.952538	2.33047	2.88392	4.01448	1.17285	1.384113
2.887081	2.896371	-0.384428	-0.0663259999999999	-0.516786	-2.234858	0.011294	-1.388613	-0.639154	1.642973	0.857683	2.298828	2.970212	4.233427	1.353006	1.481685
2.88725	2.911097	-0.375341	-0.033721	-0.545856	-2.139268	0.007918	-1.283816	-0.681281	1.613396	0.735486	2.296514	2.834075	4.20293	1.324139	1.481685
2.845503	2.827122	-0.500545	-0.0681609999999999	-0.647673	-2.169401	-0.031021	-1.307238	-0.601938	1.803058	0.882328	2.420877	3.017887	4.444345	1.653413	1.604786
2.923688	2.923174	-0.34239	0.085846	-0.809688	-2.400894	-0.122961	-1.465773	-0.695051	1.716507	0.746113	2.332276	2.643389	4.087952	1.408732	1.575126
2.888809	2.78397	-0.501187	-0.034802	-0.764584	-2.197764	-0.068743	-1.281633	-0.696342	1.71477	0.734649	2.32928	2.710209	4.196704	1.516249	1.61469
2.890567	2.889082	-0.390182	0.074545	-0.918354	-2.525775	-0.190013	-1.569868	-0.770338	1.60396	0.584782	2.174549	2.617544	4.123379	1.427931	1.589946
2.88371	2.877079	-0.382877	0.09256	-0.840861	-2.38641	-0.121517	-1.415628	-0.815752	1.53155	0.41344	2.076756	3.006942	4.541653	1.783997	1.634522
2.919174	2.91495	-0.340595	0.127346	-0.794268	-2.33784	-0.080918	-1.37769	-0.592335	1.868651	0.733087	2.348134	2.90203	4.39093	1.713676	1.619645
2.915693	2.79756	-0.468727	0.0162040000000001	-0.774189	-2.253256	-0.041501	-1.332957	-0.572514	1.862773	0.751732	2.323266	2.818159	4.25555	1.613694	1.619645
2.926109	2.790185	-0.42318	0.023471	-0.662926	-1.988386	0.049191	-1.121836	-0.580303	1.816222	0.733087	2.23209	2.902436	4.238311	1.646645	1.604786
2.8611	2.723915	-0.538304	-0.132448	-0.797508	-2.352576	-0.06172	-1.426679	-0.616509	1.709774	0.745567	2.155864	2.774537	4.051159	1.424304	1.520939
2.888809	2.893202	-0.243582	0.069818	-0.8215	-2.433101	-0.104885	-1.483988	-0.624583	1.644655	0.770823	2.140433	2.737197	3.953472	1.243221	1.476787
2.828223	2.858014	-0.305926	-0.02252	-0.883374	-2.649695	-0.187308	-1.675018	-0.656088	1.581614	0.775618	2.129215	2.724037	3.9521	1.295078	1.516445
2.881008	2.883962	-0.240004	0.046095	-0.844822	-2.580471	-0.182774	-1.654054	-0.819749	1.401235	0.488895	1.970839	2.817814	4.122078	1.514032	1.575126
2.887941	2.72969	-0.469327	-0.140121	-0.702558	-2.227299	-0.056446	-1.297817	-0.939963	1.304746	0.303616	1.862417	2.772235	4.124096	1.576841	1.604786
2.939109	2.748263	-0.470925	-0.111824	-0.840041	-2.499393	-0.148783	-1.499411	-0.810435	1.53893	0.46556	2.040401	3.009031	4.429006	1.81398	1.639484
2.908752	2.718626	-0.519407	-0.143514	-0.843802	-2.459545	-0.130352	-1.439995	-0.697616	1.744052	0.687831	2.27435	2.746838	4.198372	1.597236	1.604786
2.964361	2.891801	-0.243253	0.087364	-0.967967	-2.746026	-0.240806	-1.667248	-0.589276	1.892092	0.864752	2.455301	2.761129	4.220555	1.527432	1.555393
2.833422	2.830859	-0.339114	0.00921300000000003	-0.922593	-2.630188	-0.201349	-1.514816	-0.555283	1.922518	0.895042	2.503724	2.445724	3.882731	1.207099	1.49639
2.840338	2.854326	-0.255433	0.11663	-0.872921	-2.544432	-0.186462	-1.482679	-0.773385	1.555154	0.544746	2.201216	2.751056	4.24166	1.4589	1.541024
2.761682	2.563819	-0.698254	-0.22584	-0.760193	-2.283881	-0.072369	-1.244853	-0.696154	1.655503	0.586468	2.25381	2.914449	4.449194	1.680654	1.594891
2.893257	2.7051	-0.487872	-0.04177	-0.880928	-2.454266	-0.128551	-1.366604	-0.708142	1.619494	0.574231	2.235288	2.786537	4.298921	1.575947	1.594891
2.862873	2.598529	-0.635679	-0.164224	-0.749486	-2.106147	0.007739	-0.995519	-0.581728	1.826565	0.719306	2.39095	2.691179	4.240754	1.576841	1.599838
2.964361	2.764447	-0.357931	0.074545	-0.897933	-2.506688	-0.115418	-1.29516	-0.363845	2.22804	1.057808	2.688877	2.540496	4.03475	1.458036	1.575126
2.913132	2.680711	-0.472223	-0.0450480000000001	-0.702885	-2.222127	0.035264	-0.971624	-0.36936	2.200915	0.996563	2.641981	2.538917	4.013546	1.442466	1.560323
2.909613	2.644858	-0.468727	-0.034802	-0.593251	-2.016369	0.102166	-0.799115	-0.237588	2.347007	1.204286	2.821294	2.671545	4.130375	1.473677	1.535692
2.933046	2.576102	-0.485267	-0.0699620000000001	-0.654013	-2.260098	0.048325	-0.978577	-0.25904	2.279212	1.091279	2.694651	2.598577	3.975075	1.343156	1.525855
2.991241	2.633755	-0.35569	0.01264	-0.609805	-2.116403	0.108687	-0.869635	-0.335296	2.073204	0.901956	2.507558	2.942528	4.318342	1.594255	1.535692
2.982531	2.630159	-0.402446	-0.0172020000000002	-0.622649	-2.190795	0.104076	-0.974684	-0.207522	2.213554	1.118282	2.679947	2.844144	4.181157	1.546866	1.525855
3.034728	2.701387	-0.239405	0.0831199999999999	-0.612879	-2.326707	0.114564	-1.029364	-0.29401	2.047607	1.012059	2.494669	2.880663	4.162632	1.545836	1.516025
2.957425	2.692881	-0.274314	0.0426840000000001	-0.562761	-2.283881	0.099545	-1.04745	-0.203958	2.148019	1.180328	2.602012	2.572756	3.782978	1.229874	1.482118
2.881879	2.629011	-0.286724	0.000410999999999939	-0.45677	-2.147969	0.149982	-0.978577	-0.385201	1.857221	0.97867	2.353879	2.736772	3.951482	1.315656	1.481685
2.833422	2.576102	-0.403093	-0.0875220000000001	-0.599283	-2.413232	0.025415	-1.208839	-0.382309	1.860885	1.071651	2.418444	2.422467	3.57825	0.963182	1.418173
2.868024	2.57377	-0.401766	-0.085734	-0.59845	-2.325466	0.020081	-1.159537	-0.483151	1.747329	0.974657	2.30175	2.640984	3.836637	1.119749	1.462548
2.816085	2.565057	-0.453364	-0.124328	-0.629856	-2.326707	0.006851	-1.128262	-0.643171	1.540601	0.726728	2.134406	2.724422	3.950377	1.167109	1.462548
2.875829	2.69031	-0.272689	0.028496	-0.579763	-2.193362	0.028892	-0.964079	-0.609918	1.695112	0.826519	2.240766	2.608515	3.896077	1.079533	1.43813
2.809167	2.615478	-0.433541	-0.0663259999999999	-0.617884	-2.275986	-0.034448	-1.055446	-0.531264	1.904451	0.961321	2.381107	2.640984	3.988561	1.232039	1.482118
2.880333	2.675538	-0.372254	0.00921300000000003	-0.706553	-2.458315	-0.096987	-1.193233	-0.573683	1.893507	0.910944	2.360245	2.617199	3.950906	1.249426	1.521357
2.850849	2.567613	-0.618549	-0.18008	-0.696821	-2.326707	-0.074138	-1.145117	-0.591265	1.865101	0.880673	2.362787	2.75877	4.158808	1.433298	1.560724
