fnirSoft:	Exported Text File
Version:	4.2
ExportDate:	12/18/2023 12:00:36 PM
VariableInfo
Name:	oxygraph4.oxy.Block1
Size:	2036 x 16
Type:	Numeric
Content:	Hemoglobin
Date:	12/18/2023 12:00:25 PM
Notes:	Oxygenation (difference Hb) concentration changes data saved by Oxygraph from file C:\Users\Anette Johansson\Documents\COBI Studio Data\LRV patienter\0003p_group1_R\FILIPPA_0003p_1_01181508.oxy
Labels:	OXY	DATA
VariableData
Hemoglobin	Hemoglobin	Hemoglobin	Hemoglobin	Hemoglobin	Hemoglobin	Hemoglobin	Hemoglobin	Hemoglobin	Hemoglobin	Hemoglobin	Hemoglobin	Hemoglobin	Hemoglobin	Hemoglobin	Hemoglobin
Optode1	Optode2	Optode3	Optode4	Optode5	Optode6	Optode7	Optode8	Optode9	Optode10	Optode11	Optode12	Optode13	Optode14	Optode15	Optode16
-0.336272	-0.245623	-0.347487	-0.184639	-0.355878	-0.27558	-0.341798	-0.488711	-0.316426	-0.273928	-0.21892	-0.258325	-0.679891	-0.655751	-0.552461	-0.433021
-0.292626	-0.644604	-0.972236	-0.71728	-0.518343	-0.700954	-0.516589	-0.818334	-0.769791	-0.825804	-0.960619	-0.715893	-0.267683	-0.132458	-0.104895	-0.412227
0.339913	0.314889	0.201855	0.151152	-0.15153	0.278379	-0.211632	-0.163638	-0.517518	-0.223488	-0.337428	-0.262101	-1.488564	-1.446473	-1.160457	-0.557947
0.034127	-0.254858	-0.922988	-0.70159	-0.710801	-0.760491	-0.663452	-0.953993	-0.667452	-0.306846	-0.419207	-0.503625	-0.770728	-0.753728	-0.534491	-0.453823
-0.079251	-0.111151	-1.090176	-0.907244	-1.239302	-1.717243	-1.052949	-1.816104	-1.114564	-0.988016	-1.164546	-1.102988	-0.436061	-0.234312	-0.032373	-0.433021
-0.488625	-0.486187	-1.724116	-1.347167	-1.422742	-2.013591	-1.261324	-2.127857	-1.606555	-1.714245	-1.935101	-1.859115	-1.144282	-1.143369	-0.725215	-0.34989
-0.481651	0.142445	-0.841624	-0.712639	-0.940119	-1.133371	-1.008865	-1.507582	-1.740106	-1.850664	-2.037603	-2.046036	-1.275347	-1.266311	-0.654271	0.187511
-0.915501	-0.425991	-1.975054	-1.600224	-1.029825	-1.317784	-1.110575	-1.716282	-1.785627	-1.806269	-2.117096	-2.129928	-0.59768	-0.615663	-0.022926	0.617879
-0.542681	0.34345	-1.127262	-0.93378	-0.708948	-0.468763	-0.812613	-1.047631	-1.332105	-1.071457	-1.286957	-1.537151	-0.693404	-0.762064	-0.034494	0.862345
-0.731855	-0.054888	-1.91997	-1.564409	-1.268667	-1.559949	-1.241656	-1.741882	-1.448967	-1.231769	-1.419215	-1.620282	-0.917593	-1.080313	-0.250433	0.902986
-0.618852	0.446644	-1.041674	-0.902364	-1.224607	-1.430767	-1.170032	-1.621898	-1.911216	-1.854288	-2.122548	-2.087963	-1.225687	-1.32592	-0.419697	0.963895
-0.895864	-0.0369029999999999	-1.833327	-1.489762	-1.305751	-1.610665	-1.278506	-1.727366	-1.671976	-1.430827	-1.794795	-1.724182	-0.998024	-1.160579	-0.095535	0.882669
-0.495275	0.434309	-0.976275	-0.800798	-1.369093	-1.585271	-1.303082	-1.81363	-1.673329	-1.342999	-1.821053	-1.65538	-0.592485	-0.5484	0.410002	0.699485
-0.53037	0.324264	-1.175774	-0.958945	-0.775821	-0.465262	-0.764758	-0.702839	-1.428634	-0.870998	-1.260674	-1.132162	0.314814	0.58214	1.378009	0.862345
-0.405151	0.239616	-1.306057	-1.149515	-0.907141	-0.597429	-0.880579	-0.908181	-1.509641	-0.849975	-1.430644	-1.211082	0.165921	0.456137	1.221972	0.780973
-0.543002	0.02216	-1.768251	-1.416401	-0.642503	-0.068895	-0.545811	-0.402594	-1.791146	-1.335338	-2.002725	-1.625018	-0.397422	-0.206094	0.585985	0.638292
-0.469738	0.251112	-1.401995	-1.106716	-0.676778	-0.183368	-0.536356	-0.354515	-1.597309	-1.099984	-1.595443	-1.287973	-0.778542	-0.634202	0.132483	0.577032
-0.317271	0.152435	-1.41049	-1.167251	-0.342483	0.623537	-0.219279	0.207572	-1.683527	-1.208471	-1.781838	-1.408152	-1.166708	-1.027553	-0.298139	0.68832
-0.170231	0.407519	-0.985356	-0.876688	-0.293412	0.702498	-0.218735	0.113779	-1.33658	-0.82592	-1.443549	-1.161246	-0.652388	-0.357817	0.370296	0.943599
-0.066361	0.710671	-0.466182	-0.451855	-0.394914	0.406648	-0.199841	0.0104839999999999	-0.841098	-0.116308	-0.56577	-0.461098	-0.905078	-0.634202	-0.0267609999999999	0.963895
-0.042094	0.831599	-0.515836	-0.435341	-0.591163	-0.175496	-0.397946	-0.425056	-1.270958	-0.92161	-1.456804	-1.181518	-0.194741	0.05209	0.53175	1.166451
-0.047234	0.553109	-0.961402	-0.690693	-0.841075	-0.738605	-0.635466	-0.844817	-1.120013	-0.776111	-1.159189	-0.964256	-0.702395	-0.518655	-0.00692199999999998	1.045004
-0.007576	0.455419	-0.957057	-0.743223	-1.391058	-1.577433	-0.989418	-1.424828	-0.969628	-0.575717	-0.964819	-0.773951	-0.298601	0.021782	0.427472	1.307811
-0.042094	0.540306	-1.020908	-0.719983	-1.379627	-1.574931	-0.977925	-1.43779	-1.173547	-0.94742	-1.498005	-1.12634	-0.991862	-0.854481	-0.298139	1.085516
-0.185431	0.491651	-1.303907	-0.936113	-1.167784	-1.169772	-0.852895	-1.100967	-1.124932	-0.902034	-1.516141	-1.058965	-0.530819	-0.232391	0.347314	1.206875
-0.100963	0.832777	-0.761862	-0.503548	-1.25223	-1.205571	-0.864798	-1.061627	-1.227415	-0.922295	-1.66686	-1.228071	-1.299206	-1.109205	-0.437782	1.085516
-0.132547	0.613378	-1.045079	-0.719983	-1.402497	-1.408945	-0.942949	-1.098881	-1.096674	-0.722048	-1.384025	-1.054272	-1.633544	-1.341141	-0.628542	1.024738
-0.097966	0.625567	-0.996627	-0.620362	-1.786471	-2.122063	-1.245931	-1.558746	-1.122266	-0.561326	-1.261654	-1.028348	-1.91396	-1.75995	-0.909417	0.993298
-0.174159	0.393383	-1.392842	-0.948441	-1.310215	-1.012899	-0.832344	-0.702356	-1.071623	-0.532715	-1.212073	-0.973544	-1.729246	-1.537685	-0.698312	1.094595
-0.251455	0.307742	-1.437438	-0.919472	-1.62442	-1.587507	-1.155116	-1.257814	-1.275828	-0.909129	-1.474838	-1.187331	-1.371716	-1.166926	-0.374189	1.206875
-0.291026	0.186014	-1.72044	-1.171349	-1.945761	-2.23794	-1.440341	-1.632616	-1.022372	-0.45944	-0.983842	-0.828703	-1.121845	-0.958899	-0.22219	1.256293
-0.155915	0.625567	-1.06508	-0.514652	-1.793652	-1.698701	-1.362257	-1.309144	-1.071114	-0.622425	-1.109738	-0.928091	-1.299206	-1.15541	-0.437782	1.267458
-0.129502	0.747786	-0.746706	-0.267093	-1.750057	-1.637987	-1.257304	-1.309144	-1.300229	-0.95771	-1.487119	-1.253678	-1.395631	-1.386155	-0.58365	1.348135
-0.225056	0.637799	-0.972236	-0.454944	-1.835368	-1.798306	-1.334106	-1.35417	-1.226199	-0.939179	-1.355338	-1.132261	-1.283811	-1.201664	-0.520349	1.388431
-0.190475	0.662155	-0.771459	-0.226486	-1.68707	-1.579404	-1.266831	-1.360611	-1.252623	-1.123107	-1.401729	-1.190214	-1.499721	-1.50303	-0.806517	1.368287
-0.201773	0.576765	-0.928076	-0.454944	-1.391364	-0.830904	-1.032955	-0.959031	-0.948938	-0.60551	-0.75699	-0.731465	-0.666353	-0.634202	0.00104399999999993	1.569406
-0.231382	0.307742	-1.208304	-0.648883	-1.429302	-1.070297	-1.067925	-0.982645	-1.382904	-1.324256	-1.41942	-1.289212	-0.883856	-0.865566	-0.118978	1.609544
-0.002942	0.784723	-0.376147	-0.032718	-1.216218	-0.619796	-0.885793	-0.676645	-1.07676	-0.964181	-0.973188	-0.95482	-1.352637	-1.341141	-0.532743	1.569406
0.074307	0.858353	-0.150094	0.191543	-1.200562	-0.875287	-0.85026	-0.855881	-1.054047	-0.959892	-1.098612	-0.96159	-0.20954	-0.102406	0.36543	1.749806
0.005123	0.882262	-0.158812	0.151152	-0.836291	-0.147672	-0.512489	-0.317797	-1.081045	-1.117216	-1.262865	-1.033661	-0.248924	-0.202905	0.34243	1.729789
0.026452	0.942451	0.15356	0.307909	-1.204983	-1.029624	-0.796132	-0.965867	-0.848628	-0.979163	-1.062315	-0.883421	-0.039489	0.089222	0.644597	1.789817
0.028873	0.796761	0.041972	0.218516	-0.951064	-0.679488	-0.652028	-0.843803	-1.003505	-1.214879	-1.40072	-1.125163	-0.124182	-0.091754	0.611194	1.769814
-0.024302	0.747786	-0.071481	0.034224	-0.944924	-0.98035	-0.641583	-1.012565	-0.720759	-0.728727	-1.070601	-0.826795	-0.583632	-0.472624	0.140333	1.658534
-0.048578	0.699078	0.016656	0.132974	-0.663895	-0.255766	-0.478494	-0.693016	-0.540172	-0.664129	-0.880945	-0.589288	-0.560674	-0.437077	0.063354	1.638489
-0.053779	0.256721	-0.202527	-0.087947	-0.708211	-0.542545	-0.495306	-0.855114	-0.565834	-0.560161	-0.81254	-0.496028	-0.292679	-0.081793	0.240554	1.778652
-0.053779	-0.0305859999999999	-0.132386	-0.05675	-0.787506	-0.771883	-0.580029	-0.936617	-0.643455	-0.659638	-0.877966	-0.585504	-0.290685	-0.121702	0.039525	1.709766
0.068792	-0.571817	-0.439582	-0.288004	-0.411474	0.021425	-0.306838	-0.387716	-0.7722	-0.827436	-1.064269	-0.708188	0.116939	0.382166	0.326558	1.869753
0.007511	-0.499678	-0.202527	-0.1025	-0.472085	-0.216396	-0.476517	-0.628483	-0.823456	-0.901019	-1.158634	-0.852946	-0.698262	-0.462124	-0.47845	1.689736
0.068792	-0.488306	-0.00149100000000001	0.128439	-0.575704	-0.30489	-0.548374	-0.803265	-0.874714	-0.86661	-1.188759	-0.793642	-0.203343	0.053882	-0.131655	1.809811
0.263032	-0.427004	0.268629	0.354222	-0.784466	-0.641042	-0.677091	-1.006706	-1.028492	-1.014062	-1.532474	-1.023892	-0.793986	-0.511865	-0.595741	1.709766
0.140729	-0.978177	-0.325396	-0.075919	-0.575704	-0.117697	-0.495677	-0.604053	-0.873972	-0.861821	-1.343373	-0.948443	-0.938629	-0.642195	-0.789967	1.669699
0.318739	-0.34208	0.54554	0.575801	-0.004836	1.104539	0.003263	0.546304	-0.262694	0.185972	-0.150032	-0.089626	-0.775377	-0.304024	-0.518129	1.649655
-0.000560000000000001	-1.199531	-0.649397	-0.267092	-0.540235	0.247125	-0.334061	-0.131067	-0.517099	-0.093012	-0.52421	-0.35846	-0.932354	-0.483674	-0.609208	1.629603
0.313856	-0.434371	0.572888	0.717577	-0.781971	-0.27558	-0.504219	-0.387716	-1.101642	-0.964828	-1.61286	-1.222204	-0.143587	0.393254	0.143212	1.729789
-0.083307	-1.44764	-0.937544	-0.453343	-1.068167	-0.672982	-0.745993	-0.8537	-1.382181	-1.259734	-1.938214	-1.503201	-1.292104	-0.863848	-0.945511	1.529239
0.316294	-0.729645	0.136961	0.42257	-1.391204	-1.384281	-0.921239	-1.27803	-0.847059	-0.499647	-1.022987	-0.805577	-1.10166	-0.561143	-0.582958	1.638489
0.193933	-1.195753	-0.40328	-0.112186	-0.61865	0.270331	-0.321138	0.064079	-0.66946	-0.26206	-0.724669	-0.622525	-1.302352	-0.793656	-0.80303	1.609544
0.201884	-1.210124	-0.280841	0.00605699999999999	-0.601899	0.211551	-0.285101	0.024039	-0.618346	-0.308708	-0.792148	-0.637505	-1.058365	-0.547178	-0.608543	1.669699
-0.141646	-1.833084	-1.255612	-0.837148	-0.889038	-0.683649	-0.525194	-0.75297	-0.592362	-0.285754	-0.81254	-0.596802	-1.090904	-0.699013	-0.67346	1.689736
0.082322	-1.141867	-0.080559	0.020125	-0.619726	-0.106329	-0.398681	-0.45822	-0.43839	0.00877	-0.465105	-0.31527	-0.542991	-0.127196	-0.20077	1.789817
-0.209954	-1.838196	-1.190297	-0.885473	-0.809959	-0.690216	-0.575724	-0.953885	-0.849362	-0.603614	-1.214963	-0.856402	-0.326283	0.040517	-0.061879	1.798646
0.146088	-1.156169	0.085354	0.096896	-0.254871	0.282657	-0.161974	-0.121781	-0.285346	0.130794	-0.483729	-0.276058	0.29361	0.569057	0.445718	1.90968
-0.132547	-1.752577	-0.763517	-0.58674	-0.246134	0.17538	-0.140625	-0.236931	-0.41373	0.030186	-0.623562	-0.390358	-0.252942	-0.066203	-0.082503	1.789817
-0.007576	-1.607114	-0.560986	-0.503906	-0.228662	0.049324	-0.112588	-0.18044	-1.131481	-0.99441	-1.723232	-1.112604	-0.44846	-0.141725	-0.385474	1.749806
-0.226335	-1.939088	-1.076617	-0.873252	-0.428906	-0.354978	-0.309915	-0.503955	-0.439589	0.023025	-0.567978	-0.183112	-0.125413	0.273552	-0.049816	1.769814
-0.06931	-1.812717	-0.785866	-0.734365	-0.045486	0.5288	-0.031812	0.266746	-0.643951	-0.092242	-0.736199	-0.374684	-0.284284	0.079503	-0.176293	1.809811
-0.0295	-1.690524	-0.548062	-0.563595	0.457244	1.596372	0.253743	1.051893	-0.951244	-0.43359	-1.235942	-0.730646	-0.040373	0.523856	0.235854	1.809811
0.082322	-1.423839	-0.308092	-0.27719	0.163794	1.104056	0.072144	0.667882	-0.643897	0.036735	-0.765596	-0.328866	-0.017371	0.550707	0.158559	1.729789
0.039726	-1.296803	-0.281731	-0.17286	0.00640499999999999	0.945869	0.012713	0.631641	-0.362104	0.571127	-0.259408	0.107232	0.36145	0.962102	0.511205	1.809811
0.124851	-1.358484	-0.325396	-0.085484	-0.011547	1.268921	0.028848	0.858878	-0.87454	-0.118069	-0.972793	-0.436284	0.216317	0.881854	0.401575	1.809811
-0.034686	-1.508072	-0.670746	-0.370464	-0.332964	0.462003	-0.288559	0.254837	-0.66948	0.148747	-0.680464	-0.348969	-0.355381	0.235745	-0.106735	1.649655
0.063818	-0.970779	-0.045039	0.18312	-0.647054	0.025042	-0.493317	-0.051212	-0.771835	0.103542	-0.741952	-0.366735	0.097839	0.729791	0.35735	1.769814
-0.024302	-1.12958	-0.299198	0.096809	-0.488814	0.553626	-0.464149	0.091276	-1.001674	-0.289686	-1.152114	-0.633848	-0.684425	-0.125956	-0.46362	1.589479
-0.037586	-1.177225	-0.482078	0.03767	-0.644237	0.148123	-0.550422	0.028401	-1.155668	-0.481036	-1.559622	-1.027166	0.017385	0.640425	0.268652	1.729789
-0.121036	-1.027496	-0.299198	0.169919	-0.816345	-0.196796	-0.720375	-0.326944	-1.485613	-0.974417	-1.977564	-1.383433	-0.215734	0.389936	0.182068	1.789817
-0.027176	-0.959452	-0.342505	0.219551	-0.869846	-0.176781	-0.775357	-0.346469	-1.153246	-0.503428	-1.483892	-0.906142	-0.834785	-0.218271	-0.388211	1.769814
0.023631	-0.970779	-0.32459	0.264614	-0.939777	-0.236021	-0.851255	-0.539608	-0.948618	-0.165635	-1.125986	-0.721186	-0.80796	-0.131708	-0.270287	1.789817
0.103595	-1.137489	-0.567879	0.083141	-1.009835	-0.503556	-0.903917	-0.610833	-0.948618	-0.169436	-1.252693	-0.750452	-1.166757	-0.511865	-0.570195	1.88972
-0.056043	-1.123181	-0.681225	0.046929	-1.014148	-0.441668	-0.901937	-0.685098	-1.179099	-0.651652	-1.681896	-1.108187	-1.217041	-0.582467	-0.63485	1.929633
-0.047949	-0.96504	-0.574537	0.132974	-1.222433	-0.826412	-1.059277	-0.953885	-1.380715	-0.964677	-2.007883	-1.373697	-0.921941	-0.263943	-0.408177	1.898515
-0.077417	-1.227999	-1.031709	-0.148426	-1.014148	-0.353964	-0.916528	-0.508786	-1.685484	-1.28632	-2.423049	-1.741003	-0.944706	-0.345227	-0.518129	1.88972
0.077074	-0.632863	-0.141383	0.499237	-1.334433	-0.875287	-1.111766	-1.03014	-1.12645	-0.6428	-1.624004	-1.000521	-0.413457	0.304048	-0.00659300000000002	2.108891
0.209697	-0.312237	0.413595	0.9105	-1.144632	-0.570772	-0.939772	-0.625242	-1.304347	-0.86056	-1.817981	-1.172678	-0.734198	-0.132458	-0.377954	2.038036
-0.097966	-0.979156	-0.706355	0.123909	-1.118227	-0.560263	-0.878718	-0.655235	-1.050588	-0.538309	-1.35642	-0.802205	-0.408123	0.275759	0.013728	2.137484
-0.188542	-0.821797	-0.574537	0.20521	-1.315584	-1.118927	-1.123345	-1.205939	-1.127906	-0.691003	-1.658528	-1.05274	-0.953036	-0.405768	-0.55745	2.018125
-0.252827	-1.170492	-0.977307	-0.107345	-1.044336	-0.507852	-0.856203	-0.628483	-1.205521	-0.849132	-1.673471	-0.98772	-0.816011	-0.107184	-0.454934	2.128775
-0.074463	-1.108895	-0.838932	-0.039625	-1.285629	-1.035819	-1.088312	-1.117662	-1.360989	-1.083573	-2.045469	-1.318965	-0.75215	-0.202905	-0.38514	2.168518
-0.170231	-1.188236	-1.016894	-0.163096	-1.412227	-1.202693	-1.178844	-1.342461	-1.489599	-1.188823	-2.084357	-1.439263	-0.291811	0.304048	-0.046967	2.287585
-0.036943	-0.451336	0.067225	0.604451	-1.356868	-1.052404	-1.226111	-1.308893	-1.23309	-0.893551	-1.739282	-1.239647	0.024116	0.658808	0.3358	2.426181
-0.162072	-0.889058	-0.560986	0.069422	-0.62578	0.305487	-0.650905	-0.123191	-0.949252	-0.529744	-1.179274	-0.841446	-0.480578	0.124588	-0.288705	2.228083
-0.015637	-0.523533	-0.1153	0.475128	-0.901085	-0.30489	-0.834932	-0.706688	-1.053329	-0.73494	-1.407692	-0.906142	-0.377891	0.127993	-0.163135	2.228083
-0.13862	-0.886334	-0.507696	0.114859	-0.528327	0.278379	-0.551923	-0.262472	-1.309471	-1.098661	-1.798354	-1.274857	0.212045	0.799709	0.386148	2.267758
0.077074	-0.370488	0.255912	0.699826	-0.891983	-0.343867	-0.872741	-0.818334	-1.286317	-1.00843	-1.77424	-1.201152	0.317369	0.930616	0.486586	2.366824
-0.085533	-0.720568	-0.185018	0.337394	-0.306297	0.758918	-0.416401	0.112581	-1.078419	-0.835144	-1.420705	-0.906142	-0.417797	0.098931	-0.135473	2.137484
0.032114	-0.229676	0.418559	0.74343	-0.574718	0.021425	-0.670197	-0.437544	-0.491224	0.117118	-0.402493	-0.156791	-0.395161	0.294628	0.00538400000000006	2.188381
-0.199828	-0.690622	-0.21953	0.241369	-0.297477	0.570893	-0.466563	-0.095727	-1.231459	-1.083625	-1.736209	-1.137453	-0.616402	-0.056285	-0.293565	2.049201
0.103595	-0.154051	0.626568	0.851825	-0.660141	-0.108095	-0.717974	-0.570049	-0.94761	-0.714941	-1.202447	-0.74493	-1.08287	-0.636012	-0.80303	1.898515
-0.12022	-0.640166	-0.193594	0.200784	-0.52889	0.056275	-0.629341	-0.458165	-1.281622	-1.147945	-1.810187	-1.195933	-0.60709	-0.066203	-0.30595	2.049201
0.172662	-0.464879	0.252396	0.523749	-0.323457	0.595	-0.378817	0.152376	-0.821305	-0.400435	-0.847368	-0.573977	-0.524505	-0.014745	-0.188523	2.02929
0.175289	-0.709043	-0.045039	0.18312	-0.625143	0.058614	-0.590056	-0.41266	-1.02566	-0.668616	-1.159195	-0.812268	-1.31327	-0.810859	-0.861641	1.869753
0.177923	-0.922815	-0.237176	0.046929	-0.979885	-0.799351	-0.898629	-1.053575	-1.462644	-1.382416	-2.048631	-1.503201	-1.032362	-0.437077	-0.518129	1.949579
0.159348	-0.788755	-0.2365	0.024822	-1.442406	-1.701485	-1.275039	-1.882795	-1.89473	-2.016376	-2.74706	-2.106784	-1.13034	-0.586194	-0.855484	1.858588
0.087852	-1.142374	-0.712321	-0.344407	-0.94878	-0.577418	-0.882012	-1.012565	-1.203888	-1.063548	-1.658528	-1.292036	-0.338411	0.211806	-0.054675	1.998208
0.244111	-1.081554	-0.627774	-0.318886	-0.537712	0.389731	-0.556364	-0.286691	-1.405924	-1.225423	-1.910985	-1.49762	-1.413403	-0.921206	-1.047728	1.929633
0.365888	-0.780075	-0.062897	0.119382	-0.821534	-0.17722	-0.788584	-0.836893	-1.023235	-0.70113	-1.179257	-1.005489	-0.834785	-0.187889	-0.390451	2.077837
0.349677	-0.419123	0.213063	0.402946	-0.26333	0.956114	-0.320232	0.121133	-0.949252	-0.620612	-1.045242	-0.870607	-0.451396	0.157079	-0.111333	2.097726
0.148778	-0.713405	-0.106678	0.132974	-0.485922	0.407077	-0.495776	-0.192178	-0.847497	-0.512568	-0.995136	-0.899749	-1.058365	-0.420248	-0.654271	2.097726
0.212317	-0.594666	0.048497	0.263297	-1.146366	-0.987433	-1.05347	-1.520775	-1.460312	-1.464295	-2.142266	-1.68298	-0.093222	0.613618	0.131417	2.208235
0.095851	-1.042349	-0.634066	-0.380244	-0.637872	0.084348	-0.630774	-0.572229	-1.532662	-1.436491	-2.03518	-1.666026	-0.839483	-0.349646	-0.51245	2.108891
0.162019	-1.124219	-0.706355	-0.396075	-0.725393	-0.15767	-0.739843	-0.825686	-0.745079	-0.323164	-0.710218	-0.712517	-0.453512	0.294628	0.025681	2.247924
0.249453	-1.181404	-0.586495	-0.334384	-0.640174	-0.01134	-0.704634	-0.685098	-1.178042	-0.841648	-1.286245	-1.175641	-0.465605	0.157079	-0.046287	2.069105
0.514199	-0.410824	0.491207	0.503239	-0.52889	0.242509	-0.556364	-0.503643	-1.461874	-1.411686	-1.786372	-1.412735	-0.580218	0.089222	-0.13971	2.069105
0.069056	-1.242623	-0.898399	-0.55077	-0.926186	-0.570772	-0.881363	-1.230402	-1.487227	-1.411686	-1.880417	-1.529763	-0.50159	0.111796	-0.090919	1.958352
0.291751	-0.699625	-0.089287	0.074795	-0.761297	-0.333779	-0.765441	-0.912943	-1.102997	-0.89529	-1.235942	-1.05274	-0.151153	0.479672	0.140333	2.009373
0.048174	-1.364301	-0.962364	-0.641661	-0.829556	-0.528788	-0.762937	-1.006706	-1.382904	-1.17224	-1.525275	-1.400054	-0.675511	-0.15255	-0.30595	2.069105
0.172648	-1.213873	-0.765853	-0.539797	-0.340609	0.496603	-0.408083	-0.16638	-0.821516	-0.396272	-0.554357	-0.570442	-0.611574	-0.046376	-0.350757	2.108891
-0.091954	-1.30738	-0.942751	-0.70019	-0.831577	-0.636677	-0.788584	-1.1876	-1.305668	-1.087932	-1.346815	-1.294843	-0.553065	-0.067298	-0.244204	2.14865
0.167384	-0.498325	0.170132	0.250127	-0.78021	-0.549762	-0.767934	-1.053532	-1.30823	-1.038934	-1.397983	-1.192956	-0.130824	0.37465	0.134436	2.128775
-0.17727	-1.303587	-1.218515	-0.766192	-0.641609	-0.128295	-0.579389	-0.644538	-1.331619	-0.880961	-1.323333	-1.198893	-0.207472	0.32059	-0.030601	1.969517
0.058591	-0.509957	0.00549899999999998	0.214077	-0.763076	-0.216396	-0.671696	-0.712082	-1.917464	-1.866387	-2.356654	-1.845601	-0.948231	-0.409811	-0.609208	1.84978
-0.154927	-1.066164	-0.725368	-0.262039	-0.554804	0.340607	-0.518755	-0.326944	-1.89473	-1.618961	-2.34639	-1.716747	-0.702724	-0.091754	-0.358177	1.529239
-0.0354	-0.990341	-0.577182	-0.12186	-0.554206	0.488128	-0.443612	-0.19914	-1.43269	-0.549682	-1.514476	-1.083051	-1.381692	-0.747439	-0.920487	0.943599
-0.272671	-1.284759	-1.161381	-0.532443	-0.493144	0.430328	-0.418643	0.087028	-1.610017	-0.766442	-1.981593	-1.218379	-0.560674	0.178737	-0.270287	0.708703
0.048474	-0.961833	-0.410829	0.142257	-0.916411	-0.167441	-0.677934	-0.503955	-1.763051	-0.941644	-2.267617	-1.348434	-0.479721	0.370203	-0.241165	0.617879
0.0881339999999999	-1.30729	-0.646569	-0.017316	-0.836321	0.114267	-0.544418	-0.19914	-1.224957	-0.045142	-1.289644	-0.488183	0.071475	1.117282	0.471569	0.638292
0.382664	-1.055382	-0.028638	0.44677	-1.345378	-0.976062	-1.009826	-1.296545	-1.223045	0.070331	-1.17596	-0.525872	0.321976	1.47469	0.666793	0.740243
0.60717	-1.093536	-0.036499	0.511993	-1.129959	-0.610093	-0.866143	-1.047716	-1.982119	-1.162458	-2.529108	-1.526564	-0.366971	0.586913	0.037615	0.463621
0.73527	-0.509512	0.785788	1.208907	-1.023611	-0.380078	-0.828395	-0.77474	-1.499468	-0.55118	-1.85269	-0.935018	-0.211603	0.804598	0.199092	0.422671
0.468202	-1.116639	-0.15006	0.483283	-0.431365	0.685139	-0.418675	0.262771	-1.169898	-0.158083	-1.268519	-0.53041	-0.858897	0.094496	-0.440623	0.402184
0.742346	-0.425559	0.708388	1.211902	-0.796057	0.084348	-0.706885	-0.478323	-1.224957	-0.3955	-1.496465	-0.626481	-0.196973	0.849533	0.219777	0.769808
0.576452	-0.725635	0.217262	0.823616	-0.396036	0.742332	-0.41447	0.21938	-1.380715	-0.591259	-1.841345	-0.901922	-0.634413	0.315519	-0.261226	0.902986
0.673249	-0.301806	0.472085	1.03631	-0.683097	0.30214	-0.62127	-0.215882	-1.692589	-1.136192	-2.376869	-1.229314	-0.349856	0.658196	-0.00283600000000006	1.215912
0.436292	-0.880022	-0.332465	0.390435	-1.011199	-0.331789	-0.914279	-0.780179	-1.329569	-0.57053	-1.631434	-0.774604	-0.990202	-0.080159	-0.532018	1.256293
0.711484	0.059797	0.905314	1.366499	-0.77025	0.025751	-0.680376	-0.41266	-1.515019	-1.009019	-2.100763	-1.089966	-0.775857	0.154461	-0.313471	1.489043
0.29426	-0.770007	-0.4893	0.200784	-0.74951	0.211674	-0.669341	-0.344532	-1.102101	-0.375994	-1.410172	-0.607934	-0.997495	-0.113721	-0.73181	1.357122
0.516648	-0.10063	0.472085	1.069346	-0.851254	-0.128393	-0.637798	-0.401759	-1.157477	-0.631414	-1.608656	-0.712276	-0.698296	0.235745	-0.313471	1.589479
0.249704	-0.687264	-0.358104	0.313768	-1.058506	-0.421105	-0.799676	-0.65266	-1.208601	-0.582982	-1.566863	-0.838945	-1.066436	-0.278774	-0.73181	1.44882
0.418491	-0.298958	0.25409	0.74343	-1.353577	-0.837438	-0.962573	-0.9794	-0.977342	-0.280202	-1.192039	-0.529729	-0.679891	0.142551	-0.343217	1.638489
0.2234	-0.713771	-0.341442	0.264614	-1.154071	-0.598589	-0.825431	-0.73528	-1.004826	-0.451026	-1.326832	-0.58854	-0.335702	0.568724	0.00538400000000006	1.88972
0.52244	-0.021035	0.661324	1.062908	-0.853496	-0.06974	-0.615403	-0.426312	-1.23665	-0.770844	-1.663397	-1.033692	-0.775857	0.027433	-0.51245	1.90968
0.257298	-0.327224	0.163609	0.66997	-0.297083	1.02796	-0.219241	0.555693	-1.030309	-0.503091	-1.238746	-0.723353	-0.812991	-0.021546	-0.530825	1.949579
0.387451	-0.273083	0.351934	0.834142	-0.604648	0.202606	-0.510513	-0.186496	-0.824178	-0.255342	-0.886648	-0.454258	-0.528904	0.360931	-0.208739	2.077837
0.278161	-0.511996	-0.020093	0.458891	-0.751394	0.028159	-0.632337	-0.462362	-1.41993	-1.290696	-1.98286	-1.268425	-0.388385	0.424663	-0.107371	2.128775
0.374444	-0.153143	0.357465	0.736012	-1.306174	-1.177145	-1.097119	-1.400598	-1.186128	-0.985471	-1.725737	-1.132648	-0.80796	-0.125956	-0.589745	2.049201
0.312019	-0.24659	0.386715	0.681118	-0.744216	0.00939100000000004	-0.725148	-0.549565	-1.107779	-0.788836	-1.360895	-0.88599	-1.092687	-0.50004	-0.867686	2.009373
0.314646	-0.060782	0.487796	0.841195	-1.023346	-0.563426	-0.888375	-0.839917	-1.31303	-1.103355	-1.644961	-1.20725	-1.392047	-0.901846	-1.198303	2.009373
0.184361	-0.220083	0.274323	0.640909	-0.873807	-0.364067	-0.754547	-0.73528	-1.262821	-1.123098	-1.765735	-1.227594	-0.950579	-0.310062	-0.712356	2.089002
0.23127	-0.339587	0.170132	0.56802	-0.736104	-0.068272	-0.634594	-0.291207	-1.080692	-0.735512	-1.394523	-0.984477	-1.583654	-1.007185	-1.400815	1.989449
0.335448	-0.351726	0.25409	0.583605	-1.174222	-0.886412	-0.947915	-0.99847	-0.952444	-0.522461	-1.151227	-0.80765	-0.399658	0.29682	-0.111333	2.208235
0.47859	-0.634207	-0.037192	0.329009	-0.820519	-0.039783	-0.678701	-0.358923	-1.338626	-1.072903	-1.688411	-1.266049	-1.211848	-0.546496	-0.886788	2.108891
0.696147	-0.060735	0.723408	0.900283	-0.442987	0.742972	-0.30459	0.396001	-1.314717	-1.051977	-1.679691	-1.28359	-0.223998	0.577682	0.090293	2.366824
0.462714	-0.606391	0.057732	0.373825	-0.7793	-0.00939600000000002	-0.539945	-0.141401	-1.627925	-1.586484	-2.379337	-1.731003	-1.176137	-0.603717	-0.822263	2.157353
0.582159	-0.340224	0.370757	0.629614	-0.280355	1.047646	-0.170151	0.657742	-0.849485	-0.482793	-1.073765	-0.78161	-0.502528	0.164043	-0.135473	2.355659
0.197371	-1.308359	-0.94191	-0.46447	-0.883963	-0.136919	-0.662335	-0.341662	-0.694924	-0.161685	-0.669455	-0.485634	0.013471	0.685835	0.340191	2.347025
0.6311	-0.44634	0.223196	0.479309	-0.789231	0.179613	-0.489306	-8.6000000000001E-05	-1.627925	-1.622057	-2.35995	-1.760537	-0.698296	-0.060324	-0.244204	2.177215
0.664717	-0.579897	0.223196	0.479309	-0.323037	0.914412	-0.176721	0.671275	-0.824072	-0.27646	-1.024279	-0.674816	-0.488466	0.173616	-0.038846	1.998208
0.763361	-0.087307	0.828126	1.010239	-0.501927	0.366921	-0.315674	0.158836	-0.439589	0.31504	-0.206683	-0.211596	0.707306	1.433457	1.055224	1.989449
0.327657	-1.158327	-0.792237	-0.354263	-1.206613	-0.924113	-0.790033	-0.951183	-0.389383	0.394687	-0.046817	-0.139558	0.885193	1.505371	1.109613	1.778652
0.448135	-0.528914	0.401104	0.647847	-1.015408	-0.451961	-0.676376	-0.539446	-1.078419	-0.638556	-1.252693	-1.023455	-0.060169	0.460634	0.228889	1.287638
0.1678	-1.311256	-0.66821	-0.197213	-1.240563	-0.750178	-0.807202	-0.673526	-0.899914	-0.28938	-1.071911	-0.922275	-0.34088	0.154461	0.01024	1.045004
0.322651	-1.015495	-0.176186	0.226049	-1.582697	-1.594139	-1.123519	-1.468129	-0.695051	0.080035	-0.695423	-0.611609	-0.178158	0.335604	0.296237	0.95273
0.217616	-1.314113	-0.693729	-0.150802	-1.231227	-0.897548	-0.839109	-1.093597	-0.978832	-0.407137	-1.388064	-0.930227	-0.106359	0.622439	0.184653	-0.246148
0.430782	-0.543708	0.405663	0.779925	-0.903265	-0.255766	-0.619883	-0.518408	-0.669354	0.086327	-0.845351	-0.614709	-0.481743	0.060031	-0.188523	-1.48258
0.278256	-0.802879	-0.106437	0.467421	-0.584727	0.611546	-0.30924	0.17848	-0.566346	0.155349	-0.777173	-0.538628	-0.619229	0.030744	-0.355676	-2.036126
0.328227	-0.720847	0.145264	0.629614	-0.594324	0.438905	-0.319328	0.242977	-0.412928	0.353555	-0.641695	-0.403849	-1.280129	-0.717883	-0.926427	-2.100346
0.146442	-1.075454	-0.062897	0.398046	-0.449354	0.505076	-0.183275	0.367277	-0.30992	0.497598	-0.552389	-0.339217	-1.384695	-0.824368	-0.932254	-1.971979
0.354232	-0.275178	0.982399	1.20592	-0.40763	0.595	-0.186526	0.279326	-0.617655	0.122377	-0.886898	-0.587158	-1.51835	-0.879637	-1.109573	-2.154364
0.21238	-0.910351	0.301021	0.56802	-0.245397	0.72589	-0.004805	0.559243	-0.643254	-0.028408	-0.970415	-0.635893	-1.349103	-0.611162	-0.939681	-2.197251
0.430194	-0.355453	1.080482	1.145193	0.152985	1.420771	0.273543	1.096636	-0.617532	-0.061037	-1.119715	-0.635893	-1.325773	-0.769252	-1.190967	-2.4872
0.346406	-0.613256	0.925867	1.019959	-0.295725	0.40197	-0.031446	0.362147	-1.135977	-0.824464	-1.978769	-1.196535	-0.975968	-0.304745	-0.757513	-2.433706
0.199248	-0.939003	0.343909	0.499237	-0.287977	0.318145	0.026071	0.42232	-0.953453	-0.507136	-1.579204	-0.916943	-0.665465	0.06335	-0.360477	-2.229004
0.136041	-0.790139	0.432707	0.487263	-0.304665	0.287338	-0.062343	0.207057	-0.642892	-0.071283	-1.012614	-0.523863	-0.873538	-0.284297	-0.777288	-2.671152
-0.044285	-0.869242	0.367968	0.503239	-0.407196	-0.108942	-0.191463	-0.029285	-0.668918	-0.103952	-1.030441	-0.5545	-0.836354	-0.080159	-0.685769	-3.137883
-0.206033	-1.075454	0.231385	0.341594	0.026012	0.855396	0.118344	0.698677	-0.565834	-0.097007	-0.97649	-0.405461	-0.520826	0.216781	-0.369712	-3.553878
-0.333874	-0.990799	0.54162	0.604451	-0.345099	0.016228	-0.226966	-0.135704	-0.979053	-0.595391	-1.527965	-0.806138	-0.351516	0.298182	-0.33229	-4.105932
-0.551815	-0.954579	0.359954	0.37797	-0.504847	-0.205247	-0.387469	-0.189796	-1.081045	-0.430257	-1.592188	-0.84456	-0.799304	-0.037974	-0.640138	-4.272563
-0.218089	-0.636373	0.842825	0.754063	-0.2353	0.33587	-0.111544	0.390213	-0.516193	0.476548	-0.552389	-0.082807	-1.136957	-0.417813	-0.939681	-4.183594
-0.124288	-0.0639669999999999	0.788072	0.531616	-0.546328	-0.225118	-0.352376	-0.244228	-0.924961	-0.02183	-1.094256	-0.579112	-0.465654	0.279414	-0.350757	-4.128126
-0.089584	-0.133934	0.386715	0.296741	-0.544647	-0.359616	-0.36282	-0.306018	-0.669432	0.285824	-0.721149	-0.20921	-0.076009	0.604561	0.073317	-3.928689
-0.172686	-0.0657319999999999	0.434445	0.390435	-0.224945	0.428228	-0.138436	0.45275	-1.178574	-0.70767	-1.755226	-0.969113	-0.753217	-0.056285	-0.418514	-3.79612
-0.266931	-1.128114	-0.52151	-0.262039	-0.259115	0.459064	-0.251398	0.294722	-0.567701	0.311756	-0.544311	-0.044799	-0.517896	0.157079	-0.271386	-3.751998
0.074519	-0.390986	0.607229	0.761308	-0.150135	0.629462	-0.13209	0.45275	-0.542094	0.31468	-0.425806	0.025324	-0.565098	0.069772	-0.354796	-3.729951
-0.194378	-1.256259	-0.512265	-0.262039	-0.788988	-0.727679	-0.629692	-0.630535	-0.72072	-0.03177	-0.770607	-0.177769	-0.392671	0.20495	-0.253997	-3.389094
0.047443	-0.76533	0.167592	0.32231	-1.014473	-1.118927	-0.833095	-0.90408	-0.926944	-0.382483	-1.138752	-0.414398	-0.157717	0.516163	-0.0903119999999999	-2.99598
-0.204448	-1.357533	-0.52151	-0.12186	-0.86727	-0.7013	-0.709371	-0.733647	-1.18734	-0.782531	-1.670462	-0.769951	0.011061	0.61404	0.08441	-2.530348
0.006962	-0.722241	0.201855	0.462942	-0.800379	-0.577418	-0.584875	-0.411589	-0.926944	-0.495081	-1.258489	-0.44088	-0.132273	0.452208	-0.086983	-2.551933
-0.32068	-1.5975	-1.045079	-0.608885	-0.878901	-0.619796	-0.693717	-0.554621	-0.720592	-0.16528	-0.892671	-0.217455	-0.357782	0.270015	-0.172027	-2.59513
0.053003	-1.13798	-0.546626	-0.012649	-1.05398	-0.998815	-0.757902	-0.647438	-0.926754	-0.306229	-1.200905	-0.414398	-0.192862	0.443035	0.017344	-2.530348
-0.292131	-1.569042	-1.355811	-0.824222	-1.226342	-1.251518	-0.852895	-0.859802	-1.079964	-0.55118	-1.326983	-0.638169	-0.918972	-0.330592	-0.835368	-2.746578
-0.008637	-0.935016	-0.577806	-0.148426	-1.547785	-1.840258	-1.085525	-1.195384	-1.133483	-0.607754	-1.504124	-0.705854	-0.374694	0.268701	-0.290542	-2.616741
-0.298509	-1.120756	-1.075098	-0.510986	-1.511956	-1.703729	-1.015517	-1.177655	-1.16037	-0.729037	-1.724179	-0.728529	-0.303226	0.378573	-0.330777	-2.100346
0.012414	-0.270093	-0.097585	0.264614	-1.202132	-1.239678	-0.876064	-0.807354	-1.239863	-0.782531	-1.777929	-0.805043	0.00230900000000001	0.631527	-0.00659300000000002	-1.313339
-0.006552	-0.424686	-0.409037	-0.058521	-0.824849	-0.293501	-0.564226	-0.105539	-1.31634	-0.914632	-1.831249	-0.828992	-0.386852	0.161701	-0.415499	-0.892435
0.100691	-0.201736	-0.24318	0.114859	-1.140894	-0.950283	-0.835718	-0.688657	-1.15834	-0.699091	-1.572021	-0.772308	-0.813169	-0.288973	-0.744803	-0.715208
-0.097918	-0.312812	-0.643478	-0.177737	-0.965565	-0.609188	-0.690048	-0.363713	-1.082386	-0.56748	-1.442875	-0.607511	-0.403929	0.251189	-0.433288	-0.381827
0.089985	0.076867	-0.22668	0.178715	-0.90862	-0.591819	-0.671696	-0.346384	-0.927467	-0.386279	-1.268345	-0.39675	-0.721155	-0.109994	-0.725312	-0.30837
0.079269	0.159486	-0.269874	0.210856	-1.026598	-0.542545	-0.66321	-0.314561	-0.668918	0.060825	-0.613882	-0.00971600000000006	-0.766978	-0.107228	-0.705537	-0.557947
0.017373	-0.0194209999999999	-0.505497	0.000789000000000012	-0.939664	-0.324904	-0.631657	-0.086066	-1.290062	-0.914632	-1.757027	-0.951816	-1.520225	-0.896484	-1.340458	-0.777936
0.39703	0.802327	0.472085	0.839713	-0.498219	0.677453	-0.28085	0.751197	-0.901784	-0.204398	-0.958598	-0.273533	-0.619986	0.104127	-0.405698	-0.527441
0.222314	0.26092	-0.20237	0.25033	-0.644266	0.37884	-0.374402	0.506719	-0.824178	-0.211423	-0.994673	-0.264424	-0.481743	0.277064	-0.176104	-0.361055
0.461092	1.029219	0.599537	0.957237	-0.943678	-0.32523	-0.577617	0.007246	-0.7723	-0.185173	-0.988594	-0.157386	-0.277772	0.488028	-0.134624	-0.195158
0.337438	0.446509	-0.149832	0.308139	-0.447675	0.570177	-0.19127	0.794221	-0.565034	0.274523	-0.600422	0.057044	-0.319957	0.451236	-0.023453	-0.091718
0.538483	0.429176	-0.25328	0.120024	-0.302867	0.963685	-0.0467	1.144171	-0.306975	0.728331	-0.044487	0.423936	-0.275167	0.488862	-0.174712	-0.340292
0.138228	-0.398762	-1.276903	-0.726281	-0.769151	-0.049275	-0.487411	0.190701	-0.6948	0.088043	-0.667432	-0.0762149999999999	-0.44846	0.36853	-0.328504	-0.329127
0.535556	0.463285	-0.020444	0.316472	-0.965565	-0.384296	-0.562554	-0.045157	-0.875714	-0.145032	-0.889585	-0.405461	-0.391618	0.350087	-0.262164	-0.319536
0.247588	-0.343678	-1.09517	-0.574426	-1.109061	-0.679488	-0.641576	-0.419273	-0.669096	0.0758	-0.667432	-0.168598	-0.306766	0.40567	-0.129209	-0.370662
0.44297	0.76464	0.245897	0.508085	-0.736571	-0.117697	-0.426959	0.146134	-0.410412	0.329442	-0.37998	0.088035	-0.281913	0.433036	-0.047538	-0.464988
0.37002	0.343856	-0.25328	0.046636	-0.505578	0.291533	-0.184346	0.396001	-0.875826	-0.435058	-1.284745	-0.613294	-0.994433	-0.449242	-0.769787	-0.724944
0.642916	0.974329	0.442379	0.853369	-0.506289	0.372376	-0.148806	0.348328	-0.541233	0.121705	-0.621667	-0.147072	-1.249154	-0.670242	-1.187711	-0.808627
0.345547	0.431397	-0.287714	0.312303	-0.336464	0.742972	-0.043596	0.806785	-0.182889	0.611028	-0.025054	0.377351	-0.471616	0.174346	-0.411766	-0.704043
0.471038	0.779869	0.237699	0.732489	-0.437748	0.479652	-0.058152	0.621339	-0.489838	0.189474	-0.552541	-0.137823	-0.872978	-0.371003	-0.816067	-0.724944
0.247507	0.364841	-0.260967	0.24314	-0.851836	-0.30489	-0.294301	-0.087371	-0.823336	-0.49372	-1.22477	-0.607511	-1.216868	-0.700373	-1.094388	-0.662263
0.201484	0.367035	-0.304186	0.24314	-0.811731	-0.27558	-0.281656	-0.245653	-0.72072	-0.298887	-1.00039	-0.431832	-0.978274	-0.350424	-0.915544	-0.474633
0.193418	0.11661	-0.537341	0.051185	-0.319219	0.603274	0.083789	0.533934	-1.053691	-0.778231	-1.520875	-0.963057	-1.897182	-1.483618	-1.852482	-0.433021
0.271563	0.523045	-0.054268	0.462942	-0.344615	0.750944	-0.00491000000000003	0.462021	-0.694934	-0.342469	-0.978937	-0.487833	-0.997495	-0.407711	-0.889051	-0.071052
0.125648	0.330937	-0.293542	0.232629	-0.765746	-0.128295	-0.284172	-0.234793	-0.976496	-0.688533	-1.469775	-0.882731	-0.464395	0.065539	-0.468647	0.135188
0.108677	0.422926	-0.300569	0.32231	-0.86727	-0.392792	-0.410382	-0.382068	-0.415306	0.191508	-0.475868	-0.152825	-0.39112	0.221643	-0.423108	0.238028
-0.039317	0.273827	-0.602511	0.042298	-1.205949	-0.972891	-0.640524	-0.976907	-0.669493	-0.197345	-0.946551	-0.440425	-0.275894	0.369327	-0.368153	0.474786
0.045178	0.461254	-0.300569	0.326588	-0.994724	-0.609188	-0.507823	-0.529341	-0.26198	0.221721	-0.372067	0.110426	-0.186337	0.35953	-0.282651	0.617879
0.061414	0.176575	-0.54981	0.010743	-1.029693	-0.570772	-0.472644	-0.498875	-0.541995	-0.071283	-0.794484	-0.260804	-0.578376	0.110101	-0.653014	0.68832
0.14836	0.433768	-0.190023	0.398771	-1.100663	-0.566847	-0.511725	-0.538905	-0.592958	-0.140003	-0.839274	-0.352835	-0.519104	0.08292	-0.581802	0.769808
0.173242	0.626501	-0.00336000000000003	0.535559	-0.96442	-0.245018	-0.385545	-0.272168	-0.720642	-0.331189	-0.952578	-0.39675	-0.063364	0.55175	-0.168215	0.95273
0.020447	0.230193	-0.395536	0.20521	-1.228117	-0.625999	-0.655001	-0.760945	-0.976496	-0.694795	-1.299632	-0.668806	-0.403929	0.193293	-0.380649	1.045004
0.066552	0.188343	-0.438647	0.132974	-1.111561	-0.685307	-0.628412	-0.725733	-0.79739	-0.387714	-0.973453	-0.497434	-0.76239	-0.213821	-0.822949	1.155286
0.079806	0.0241250000000001	-0.661055	-0.164822	-1.52898	-1.457972	-0.873948	-1.416057	-1.053691	-0.86001	-1.476773	-0.970454	-0.248805	0.277064	-0.350757	1.468936
0.093062	0.0514560000000001	-0.714038	-0.205804	-0.968916	-0.390322	-0.51003	-0.658085	-1.106301	-0.976028	-1.617485	-1.081533	-0.315774	0.102163	-0.428053	1.578313
0.100885	0.157596	-0.540497	-0.07823	-1.037272	-0.497396	-0.555829	-0.762803	-0.926351	-0.673248	-1.31963	-0.756664	-0.376612	0.048368	-0.622019	1.629603
0.163274	0.389938	-0.5003	0.056203	-1.120756	-0.738605	-0.605481	-1.046905	-1.133098	-0.873715	-1.731588	-1.0707	-0.319957	0.165989	-0.595741	1.558241
0.0257	0.147828	-0.748036	-0.13373	-1.109061	-0.647365	-0.560323	-0.83129	-0.618223	-0.079531	-0.803113	-0.295941	-0.831594	-0.517667	-0.945511	1.53816
0.216639	0.463285	-0.200157	0.196362	-1.090664	-0.830904	-0.514414	-0.890121	-0.643757	-0.086541	-0.931641	-0.431832	-0.660966	-0.20376	-0.66057	1.669699
0.072081	0.162172	-0.450348	0.001375	-1.093884	-0.853072	-0.54796	-0.866424	-0.490235	0.034383	-0.624384	-0.234606	-0.702573	-0.256837	-0.667145	1.778652
-0.058549	0.404488	-0.071986	0.232629	-0.827322	-0.321649	-0.402034	-0.711401	-0.875189	-0.530691	-1.27819	-0.621667	-0.347308	-0.027204	-0.460434	1.778652
-0.161584	0.29657	-0.244405	0.191944	-0.591163	0.026512	-0.202422	-0.34268	-0.720775	-0.372076	-1.151413	-0.51117	-0.628139	-0.230362	-0.692952	1.829799
-0.158673	0.280706	-0.1318	0.169079	-0.898279	-0.507852	-0.531171	-0.971562	-0.541774	-0.234917	-0.925665	-0.278595	-1.212906	-0.963348	-1.290178	1.758649
-0.10456	0.349748	-0.080632	0.236997	-0.641602	-0.060667	-0.318993	-0.614814	-0.746328	-0.348462	-1.060568	-0.444692	-0.711655	-0.356075	-0.828299	1.949579
-0.017814	0.47012	0.12498	0.394601	-0.948752	-0.594024	-0.54353	-1.023082	-0.900879	-0.624825	-1.339587	-0.595047	-0.357782	-0.060925	-0.474518	2.038036
0.041739	0.433768	0.143776	0.523749	-0.666319	-0.089449	-0.302524	-0.593159	-0.952871	-0.819912	-1.422111	-0.67502	-0.240534	0.050852	-0.372656	2.097726
0.103717	0.838737	0.733798	0.907087	-0.438956	0.450405	-0.194255	-0.253374	-0.901514	-0.646174	-1.307652	-0.547194	0.588357	0.995093	0.386148	2.247924
-0.099453	0.247816	-0.08938	0.357297	-0.345099	0.410726	-0.169794	-0.208969	-1.056026	-0.904803	-1.625826	-0.821088	0.071017	0.386937	-0.143824	1.898515
0.089323	0.717775	0.699266	1.050123	-0.3619	0.652901	-0.058152	-0.075171	-0.797614	-0.482793	-1.090773	-0.405461	-0.142406	0.230141	-0.385474	1.377266
-0.187796	0.172649	-0.106621	0.467421	-0.573529	0.211674	-0.25254	-0.387583	-0.848097	-0.435138	-1.068889	-0.426886	-0.404319	-0.123182	-0.704714	1.094595
0.035528	0.390631	0.389581	0.787019	-0.753413	-0.137981	-0.435282	-0.709379	-0.567645	-0.026451	-0.70875	-0.117874	-0.154427	0.275992	-0.369712	1.155286
-0.055446	-0.162619	-0.200157	0.292496	-0.670933	0.03073	-0.366105	-0.630535	-0.339924	0.279726	-0.344503	0.205088	-0.564337	-0.267588	-0.869196	1.07435
0.029351	0.247816	0.301719	0.692325	-0.917697	-0.690216	-0.590056	-1.371401	-0.312101	0.109031	-0.478017	0.136264	-0.119116	0.25766	-0.372965	1.509145
-0.251029	-0.204678	-0.234298	0.25601	-0.615951	-0.099275	-0.374883	-0.843803	-0.746266	-0.43917	-1.054366	-0.357197	-0.618267	-0.344521	-0.868647	1.638489
-0.083176	-0.0943350000000001	-0.02887	0.37797	-1.008305	-0.815397	-0.564776	-1.346119	-0.694981	-0.34055	-0.907694	-0.382944	-0.691659	-0.52302	-0.83607	1.829799
-0.129826	-0.329385	-0.284583	0.191944	-0.806164	-0.216396	-0.328496	-0.766445	-0.20908	0.418222	-0.156218	0.152301	-0.139402	0.0991730000000001	-0.254143	1.918467
-0.03666	-0.802599	-0.753156	-0.339545	-0.991493	-0.598589	-0.431036	-1.152644	-0.977068	-0.783596	-1.473274	-0.871062	-0.709622	-0.507098	-0.704714	1.649655
0.0100330000000001	-0.945917	-0.689512	-0.287278	-0.515752	0.340607	-0.088699	-0.458165	-0.182889	0.453691	-0.055604	0.229382	-0.412788	-0.103363	-0.357219	1.618437
-0.0969059999999999	-0.848056	-0.47538	-0.104572	-0.491394	0.42175	-0.098364	-0.478536	-1.029434	-0.952368	-1.589973	-1.008164	-0.910858	-0.622797	-0.882355	1.477878
0.0512330000000001	-0.341003	0.133353	0.398046	-0.12615	1.084513	0.187501	0.023761	-0.413471	-0.022957	-0.523322	-0.218009	-0.598114	-0.317909	-0.559982	1.558241
-0.072122	-0.707181	-0.235538	0.078827	-0.269589	0.823889	0.062255	-0.232136	-0.643694	-0.399694	-1.015666	-0.548705	-0.279287	-0.037008	-0.319853	1.73864
0.081214	-0.439683	0.073412	0.406199	-0.40577	0.586726	-0.051264	-0.40269	-0.106741	0.344352	-0.105888	0.097858	-0.66829	-0.538742	-0.653014	1.838615
-0.0695540000000001	-1.143342	-0.738455	-0.391364	-0.641602	0.046908	-0.226966	-0.820081	-0.618223	-0.379719	-0.776315	-0.478099	-1.181387	-1.036347	-1.090573	1.949579
-0.055868	-1.245665	-0.810961	-0.443464	-0.583156	0.193535	-0.116424	-0.685098	-0.900323	-0.893551	-1.302967	-0.908698	-1.166559	-0.92985	-0.998742	1.989449
-0.157234	-1.39231	-0.908463	-0.495846	-0.669144	0.067901	-0.215819	-0.818334	-1.36294	-1.630374	-2.105738	-1.488783	-1.477477	-1.279309	-1.299071	1.829799
-0.110632	-0.721968	-0.252069	0.124462	-0.448254	0.430328	-0.096812	-0.524206	-1.210046	-1.466242	-1.875309	-1.213634	-1.21789	-0.988625	-1.098439	1.718624
-0.176584	-0.821985	-0.311488	0.165528	-0.227822	0.998069	0.134292	0.064079	-0.618148	-0.387724	-0.707252	-0.326446	0.087221	0.488028	0.078385	1.949579
-0.050161	-0.793781	-0.097585	0.197849	-1.093884	-0.777487	-0.550158	-1.579988	-1.234658	-1.455338	-1.836093	-1.226985	-0.476645	-0.177029	-0.50158	1.838615
0.0349510000000001	-1.009716	-0.22668	0.152383	-0.896987	-0.382606	-0.429003	-1.300952	-0.97761	-0.978094	-1.490759	-0.938915	-0.26004	0.0192150000000001	-0.196703	2.097726
0.059365	-0.621979	0.278627	0.504183	-0.574338	0.114267	-0.256189	-1.100536	-1.156131	-1.248451	-1.619574	-1.186549	-0.887546	-0.663887	-0.803469	2.117608
-0.124353	-0.938251	-0.132384	0.226049	-0.678039	-0.020815	-0.27444	-1.118421	-1.285753	-1.479387	-1.98286	-1.353783	-0.73383	-0.449692	-0.54354	2.347025
0.13858	-0.150303	0.921379	1.034321	-0.441135	0.372376	-0.090244	-0.651694	-0.97761	-0.928635	-1.333548	-0.915948	-0.316392	-0.0934700000000001	-0.237621	2.494061
-0.214892	-1.28206	-0.562306	-0.145986	-0.877246	-0.591819	-0.510513	-1.677375	-1.05507	-1.223855	-1.566061	-0.995753	-0.182484	-0.037008	-0.20077	2.632126
0.081883	-0.306575	0.664758	0.846525	-0.619327	-0.128295	-0.380767	-1.313395	-1.05633	-1.244456	-1.670462	-0.94368	-0.00636700000000001	0.213421	-0.030601	2.809146
-0.055446	-1.15506	-0.123672	0.193523	-0.747548	-0.343867	-0.441398	-1.544648	-1.3136	-1.601073	-2.138395	-1.328286	-0.072679	0.175495	-0.123476	2.632126
0.010478	-0.578735	0.569153	0.699304	-0.628993	-0.196796	-0.27804	-1.296545	-1.469285	-1.945784	-2.446685	-1.524885	-0.344079	-0.113267	-0.360477	2.415016
-0.350252	-1.443613	-0.63071	-0.145986	-0.664559	-0.334922	-0.243885	-1.363205	-1.234658	-1.484891	-1.963006	-1.183303	-0.274101	-0.051219	-0.311812	2.316053
-0.0747939999999999	-0.69361	0.312914	0.736067	-0.682393	-0.255672	-0.321138	-1.430388	-0.952871	-1.068015	-1.508223	-0.748725	0.033383	0.322355	-0.13949	2.406402
-0.223737	-0.996363	-0.046162	0.369686	-0.339248	0.71906	0.003263	-0.69393	-0.772249	-0.766443	-1.117912	-0.436139	-0.080513	0.127868	-0.237621	2.355659
-0.010995	-0.664728	0.399961	0.725353	-0.563043	0.252741	-0.158526	-1.038332	-0.669302	-0.735512	-1.018716	-0.348453	-0.135542	0.079993	-0.254143	2.29624
0.0173690000000001	-0.997921	0.127119	0.514236	-0.718166	0.075288	-0.212763	-1.164862	-0.823671	-0.801783	-1.087651	-0.501644	-0.555627	-0.233978	-0.458474	2.434787
0.174979	-0.227804	0.969034	1.210876	-0.518941	0.296701	-0.088173	-1.04594	-1.030584	-1.113231	-1.432603	-0.779402	-0.375973	-0.105944	-0.430821	2.347025
-0.215534	-1.158801	-0.193125	0.287402	-0.604648	0.188607	-0.073399	-1.081992	-1.109139	-1.427913	-1.73334	-0.82505	-0.444676	-0.0934700000000001	-0.491096	2.355659
-0.0273949999999999	-0.620451	0.484716	0.917008	-0.382661	0.595235	-0.014258	-0.865282	-0.6948	-0.713192	-0.91884	-0.216409	0.432928	0.766187	0.245378	2.386616
-0.24055	-0.925303	0.023076	0.596076	-0.245193	0.865188	0.087645	-0.631762	-0.90223	-1.183502	-1.529151	-0.609078	-0.068762	0.285702	-0.204933	2.347025
-0.0299560000000001	-0.605647	0.545827	0.991013	-0.484907	0.355013	-0.094808	-1.004167	-0.617655	-0.664599	-0.831748	-0.151664	-0.418915	-0.113267	-0.554617	2.19707
-0.137913	-1.319222	-0.132384	0.377761	-0.925028	-0.534612	-0.421809	-1.649464	-1.18485	-1.577249	-1.803503	-0.920652	-0.750104	-0.565204	-0.750667	2.168518
0.161084	-0.54665	0.817783	1.185249	-0.537144	0.089504	-0.216069	-1.316109	-1.212312	-1.564293	-1.826147	-0.875141	-0.5475	-0.190124	-0.493959	2.236759
-0.209977	-1.028537	0.239567	0.78557	-0.15189	0.709744	0.086368	-0.791053	-1.344801	-1.864505	-2.21985	-1.117519	-0.779215	-0.449242	-0.69176	2.216918
-0.057195	-0.516479	0.886822	1.336186	-0.357215	0.256012	-0.125856	-1.24398	-0.798293	-1.035447	-1.348366	-0.409988	-0.119687	0.331787	-0.159013	2.347025
-0.165496	-1.321641	-0.054878	0.492517	-0.538257	-0.08729	-0.278573	-1.534344	-0.591362	-0.793303	-0.970311	-0.10703	-0.083792	0.350704	-0.216657	2.347025
-0.162789	-0.983571	0.500457	0.849943	-0.756582	-0.576134	-0.397804	-1.891728	-0.309526	-0.364225	-0.490865	0.152301	-0.467908	-0.152994	-0.514271	2.366824
-0.307571	-1.486007	-0.028638	0.555195	-0.384134	0.111731	-0.146755	-1.359	-0.514317	-0.633378	-0.855923	-0.0902919999999999	-0.190502	0.174346	-0.241813	2.454552
-0.15128	-1.206084	0.499026	0.941113	-0.246245	0.170615	-0.079145	-1.274072	-0.694644	-1.056802	-1.304384	-0.365974	-0.056696	0.275992	-0.221255	2.454552
-0.201276	-1.162595	0.475551	0.972081	0.02889	0.66131	0.124773	-1.026947	-0.954407	-1.449263	-1.83951	-0.786235	0.178802	0.460882	-0.041159	2.533543
-0.0559029999999999	-0.704746	0.941511	1.333486	-0.08311	0.520651	0.096227	-1.05169	-0.591001	-0.86915	-1.082555	-0.216409	0.318437	0.607434	0.072191	2.643291
-0.226369	-1.117962	0.301021	0.863395	0.223704	1.323755	0.36733	-0.431213	-0.980221	-1.397652	-1.748039	-0.828992	0.294886	0.616289	0.039525	2.682677
-0.100499	-0.778234	0.830163	1.37326	-0.100287	0.72703	0.088206	-0.943213	-0.85006	-1.153635	-1.373749	-0.519652	-0.123721	0.211305	-0.184454	2.603879
-0.377965	-1.311401	0.110434	0.707638	-0.211808	0.595235	0.00333700000000001	-1.001956	-0.59169	-0.735512	-0.925425	-0.274179	-0.590484	-0.217164	-0.587438	2.454552
-0.23203	-0.866146	0.711196	1.139363	-0.384572	0.344488	-0.075167	-1.145798	-0.488448	-0.478718	-0.624586	-0.0382739999999999	-0.052256	0.322556	-0.113742	2.415016
-0.37529	-1.34192	0.13545	0.86671	-0.151465	0.695156	0.115632	-0.850758	-0.79828	-0.976028	-1.273632	-0.427504	0.151483	0.609006	0.045452	2.445952
-0.282416	-1.28247	0.290568	0.829551	-0.203216	0.445737	0.05728	-0.9488	-0.617532	-0.739942	-1.157736	-0.330959	-0.484888	-0.172923	-0.572757	2.256593
-0.335905	-1.538075	0.023933	0.663273	-0.220357	0.479652	-0.007539	-1.03444	-0.927777	-1.158618	-1.532634	-0.576833	0.113002	0.545223	-0.089477	2.434787
-0.265592	-1.372539	0.309103	0.863395	-0.461707	0.120835	-0.153423	-1.370675	-0.849808	-1.068015	-1.312149	-0.536374	-0.222583	0.210736	-0.266491	2.505226
-0.11135	-1.238098	0.611257	1.05597	-0.539288	-0.028202	-0.197934	-1.47907	-1.158761	-1.490396	-1.819852	-0.958325	-0.15922	0.313094	-0.151677	2.671512
-0.299337	-1.931368	-0.150094	0.398794	-0.755766	-0.623456	-0.372782	-1.909141	-1.291068	-1.640651	-2.134747	-1.169507	-0.887219	-0.496615	-0.672849	2.553273
-0.363932	-1.764104	-0.149832	0.48864	-0.885016	-0.931026	-0.522951	-2.290901	-1.626248	-2.111036	-2.699096	-1.734245	-1.000311	-0.682168	-0.941769	2.395237
-0.302134	-1.765979	0.023076	0.596076	-0.082905	0.711092	0.088206	-0.761878	-0.849485	-0.91234	-1.367585	-0.635893	-0.778285	-0.321731	-0.757513	2.415016
-0.043472	-1.556164	0.370757	0.894149	-0.658725	-0.384296	-0.331225	-1.866173	-0.849808	-0.86001	-1.357019	-0.566896	-0.174912	0.238918	-0.106735	2.592714
0.00121800000000005	-1.663401	0.389783	0.771961	-0.470111	0.220448	-0.107407	-1.352871	-1.446969	-1.811251	-2.549492	-1.515564	-0.707217	-0.331941	-0.645959	2.454552
0.0880880000000001	-1.391618	0.553269	1.006402	-0.444505	0.220448	-0.077727	-1.24366	-0.77229	-0.633378	-1.199535	-0.514149	-0.325665	0.1919	-0.122455	2.572997
-0.223385	-2.29129	-0.289736	0.192116	-0.861711	-0.876211	-0.48046	-2.088426	-1.290568	-1.520698	-2.191085	-1.2236	-0.759112	-0.325256	-0.572757	2.19707
0.0730999999999999	-1.98057	0.77096	1.12181	-0.15951	0.663303	0.062896	-0.93093	-0.720773	-0.739942	-1.124195	-0.431109	-0.726437	-0.220207	-0.453052	2.29624
-0.245775	-1.93499	0.225433	0.809437	0.107352	1.068248	0.224045	-0.475192	-0.926944	-0.987682	-1.401743	-0.700548	-0.193896	0.276364	0.132517	2.572997
-0.364175	-1.450405	0.467715	1.006402	-0.298133	0.411808	-0.061473	-1.109146	-0.643543	-0.474639	-0.853045	-0.322149	0.363188	0.973429	0.719191	2.513806
-0.446245	-1.179192	0.386715	1.05597	-0.539288	-0.08729	-0.214405	-1.431779	-1.15834	-1.219405	-1.731588	-1.02243	0.013164	0.71806	0.486674	2.29624
-0.347796	-1.105969	0.239567	0.90064	-0.61749	-0.225411	-0.312861	-1.346863	-1.284607	-1.411885	-1.907547	-1.206744	-0.775867	-0.14021	-0.188344	1.858588
-0.488702	-1.749403	-0.427243	0.394834	-0.867857	-0.644593	-0.468494	-1.825309	-1.492672	-1.680201	-2.338095	-1.392063	-0.161656	0.506871	0.301474	1.758649
-0.193041	-1.26898	0.576426	1.274673	-0.314594	0.42175	-0.044672	-0.867008	-1.5182	-1.721633	-2.537798	-1.476578	-0.850281	-0.338361	-0.483737	1.53816
-0.809845	-1.454704	0.127119	0.96273	-0.01434	1.010859	0.168106	-0.332967	-1.284607	-1.34191	-2.15735	-1.220346	-0.715016	-0.041432	-0.249941	1.658534
-0.784278	-1.924079	-0.280841	0.720799	0.096874	1.426496	0.362092	0.161458	-0.772249	-0.579649	-1.27819	-0.497434	0.067611	0.860881	0.324595	1.758649
-0.440415	-1.767678	0.18012	1.14803	-0.435738	0.285494	-0.065283	-0.915843	-0.84923	-0.656421	-1.31963	-0.475271	-0.323345	0.378989	-0.172223	1.518074
-0.429298	-1.579435	0.475551	1.3422	-0.168965	0.910729	0.12508	-0.416759	-0.849091	-0.620072	-1.340259	-0.570987	-0.174912	0.671169	0.057372	1.518074
-0.366421	-1.762832	0.127119	1.003343	-0.502474	0.188607	-0.134297	-1.026876	-1.517414	-1.533416	-2.524413	-1.419164	-0.255941	0.527377	0.030797	1.53816
0.0944199999999999	-1.639176	0.15356	1.000293	-0.459122	0.305487	-0.170144	-0.941847	-1.337413	-1.014731	-2.177994	-1.183303	-0.584925	0.22926	-0.285929	1.477878
0.0559340000000002	-1.484687	0.437354	1.239877	-0.570614	0.13903	-0.184798	-1.137842	-1.001674	-0.579649	-1.753274	-0.787641	-1.197962	-0.459655	-0.737916	1.509145
-0.0766039999999999	-1.686741	0.198589	0.994219	0.069711	1.289444	0.268802	0.01972	-1.179616	-0.756662	-1.907837	-0.9353	-1.434032	-0.655581	-1.010079	1.316812
-0.0540619999999999	-1.224701	0.848466	1.422664	-0.305938	0.737334	0.080934	-0.355686	-0.84879	-0.335595	-1.518201	-0.401116	-0.762145	0.060774	-0.410163	1.357122
0.157028	-0.979051	1.193649	1.799553	0.00166899999999998	1.068248	0.28245	-0.038063	-1.003505	-0.619859	-1.883001	-0.555765	-0.598114	0.455673	-0.188523	1.155286
-0.00941399999999992	-1.608558	0.530065	1.258805	-0.16043	0.795286	0.162491	-0.242909	-0.746495	-0.134643	-1.432603	-0.068862	-0.442455	0.695322	-0.163882	0.810508
0.0566720000000001	-1.515921	0.494956	1.296721	-0.262954	0.729474	0.10911	-0.411542	-0.772349	-0.113344	-1.449689	0.044686	-0.559982	0.54276	-0.41825	0.708703
0.204753	-1.240038	0.6385	1.458038	-0.460509	0.226341	-0.073399	-0.667007	-0.746507	-0.154065	-1.3595	0.122966	-0.346782	0.852071	-0.094611	0.932434
0.115122	-1.561354	0.452026	1.256195	-0.306297	0.698052	0.112248	-0.353747	-0.410758	0.16389	-0.870284	0.468672	-0.386976	0.750602	-0.098172	1.024738
0.223105	-1.194349	1.066352	1.803228	-0.194594	1.061324	0.275558	-0.00228099999999998	-0.488448	0.172336	-1.018819	0.374245	-1.10287	-0.016507	-0.718502	1.045004
0.0921110000000001	-0.931197	1.313189	1.991862	0.157402	1.660823	0.530741	0.44262	-0.539527	-0.013602	-1.128108	0.322175	-0.327491	0.805646	-0.053213	1.206875
-0.013722	-1.189949	0.743369	1.687456	-0.048181	1.068434	0.342945	-0.108568	-0.487349	0.326819	-1.006504	0.479861	-0.170458	1.058563	0.036452	1.07435
-0.128573	-1.205273	0.650713	1.685446	-0.031816	1.003511	0.300168	-0.242909	-0.564097	0.0890839999999999	-1.076334	0.476471	-0.225429	1.012418	0.00365399999999999	1.10576
-0.141427	-1.612321	0.61563	1.647471	0.054101	1.24845	0.44861	0.097006	-0.381154	0.161094	-0.929112	0.609618	-0.104019	1.050483	0.093027	1.19571
-0.305854	-1.269263	0.897011	1.837649	0.10523	1.362951	0.440818	0.214495	-0.381154	0.083269	-1.030274	0.673462	0.113002	1.417834	0.179623	1.316812
-0.190705	-1.097621	1.165135	2.031531	0.175948	1.495775	0.573908	0.27634	-0.221889	0.230802	-0.891181	0.787809	0.041863	1.256329	0.224179	1.578313
-0.130822	-1.158494	1.109127	1.988815	0.125934	1.21445	0.534744	0.108739	-0.218523	0.112296	-1.084596	0.689806	-0.013154	1.371798	0.253199	1.509145
-0.10556	-1.095522	1.644759	2.453739	0.2038	1.21445	0.662838	0.231013	0.416167	0.91677	-0.088283	1.550866	-0.218572	1.117367	-0.117043	1.19571
0.034157	-1.032469	1.875698	2.569116	0.273412	1.374525	0.745671	0.189101	0.101578	0.376882	-0.578893	1.07852	-0.008432	1.302807	0.082801	1.227077
0.0133830000000001	-1.077902	1.79286	2.490643	0.144748	1.091338	0.624091	-0.0602	0.659008	1.225826	0.34383	1.852437	0.490851	1.751767	0.451905	1.357122
0.0155970000000001	-0.997864	1.786897	2.489906	0.697848	2.482282	1.063455	0.971847	-0.133216	-0.125924	-1.077415	0.765987	0.309566	1.620943	0.373542	1.53816
-0.104	-1.200196	1.584385	2.48848	0.689907	2.266299	1.048599	1.047069	0.102644	0.222884	-0.811152	0.974751	0.000317000000000012	1.194339	0.082801	1.509145
-0.116561	-1.090337	1.513106	2.372364	0.581373	2.034395	1.01135	0.840442	0.208516	0.455029	-0.578893	1.157157	-0.57772	0.531428	-0.365934	1.49798
-0.133061	-1.503557	1.273298	2.25442	0.320601	1.394043	0.798422	0.283944	0.339892	0.60893	-0.190408	1.456067	-0.158859	1.139752	-0.031939	1.437655
-0.166665	-1.332057	1.355144	2.183093	0.276268	1.497715	0.783202	0.280582	0.155018	0.450471	-0.474191	1.176189	0.043039	1.256382	-0.017224	1.437655
-0.136672	-1.532258	0.917952	1.948975	0.143315	1.149583	0.624091	0.0244369999999999	-0.134067	-0.059345	-1.002493	0.824769	-0.040714	1.155918	-0.104895	1.468936
0.06972	-0.982035	1.403553	2.302523	-0.020487	0.915659	0.525189	-0.102647	0.103718	0.448209	-0.511075	1.189823	0.537986	1.825018	0.497267	1.578313
-0.0552319999999999	-1.764141	0.219853	1.322327	-0.211097	0.559966	0.403065	-0.161276	0.180617	0.719203	-0.553919	1.201969	0.0796399999999999	0.823551	0.236928	-0.588483
-0.0942639999999999	-1.790281	0.513504	1.693974	-0.073344	1.264512	0.639225	0.676393	0.227105	1.257581	-0.223087	1.619714	-0.684357	0.605061	-0.185084	-5.04913
-0.624553	-2.340165	-0.217433	1.367603	-0.186013	1.032937	0.564398	0.654401	-0.272754	1.087414	-1.08537	1.507131	-0.929648	1.519051	-0.166483	-9.175787
-1.199513	-2.696116	-0.236027	1.450122	-0.599149	-0.194709	0.212116	-0.18027	-0.691709	0.951781	-1.7857	1.355106	-0.686162	2.287845	0.367167	-11.928936
-1.98937	-3.17809	-0.234839	1.562134	0.10075	1.225614	0.702337	1.00927	-0.194844	2.005701	-0.998591	2.213111	-1.111584	2.322383	0.082765	-14.467132
-1.638753	-1.991494	0.824569	2.679283	0.781911	2.447251	1.112843	1.980338	0.296354	3.182096	0.141577	3.190685	-0.896799	2.774564	0.380855	-16.428953
-1.819972	-1.81428	0.576637	2.479489	0.95947	2.926453	1.304703	2.629776	0.139436	3.15335	-0.216536	3.081532	-0.793622	3.188994	0.559423	-18.040131
-1.726806	-1.360474	1.113026	2.999751	1.401282	3.897792	1.642938	3.381286	0.061486	3.28377	-0.196149	3.246294	-0.548463	3.60188	0.891052	-19.320524
-1.711301	-1.199013	1.045946	3.039027	1.29015	3.533097	1.554713	3.30805	0.656327	4.47269	0.870756	4.216137	0.436999	4.71227	2.025231	-20.030552
-1.983311	-1.728849	0.590653	2.598735	1.021935	2.884599	1.346774	2.857003	-0.277411	3.009079	-0.819754	2.929918	-0.564337	3.929949	0.951507	-21.136818
-2.062783	-2.507957	0.165002	2.159605	0.534364	1.9463	0.98077	2.080231	-0.385552	3.124633	-0.920505	2.889905	-0.887546	3.720225	0.583612	-22.007894
-1.850286	-2.231182	0.818133	2.758657	1.150414	3.168549	1.365668	3.154532	-0.567247	3.1508	-1.118797	2.685132	-1.105492	3.555178	0.498495	-22.660316
-1.772783	-1.361214	1.233102	3.154893	0.848215	2.678372	1.083902	2.642382	0.068662	4.244734	0.015781	3.742475	-1.04832	3.744965	0.749234	-22.868643
-2.13863	-2.181628	0.277984	2.442392	0.588741	2.217411	0.853469	2.458745	-0.035428	4.31554	-0.026633	3.661187	-0.863995	4.012094	0.955695	-23.057746
-2.017866	-1.634177	0.56477	2.642083	0.118132	1.420444	0.458638	1.764726	-0.643746	3.462733	-0.865554	2.881431	-0.438403	4.437436	1.630917	-22.922776
-1.965873	-1.724915	0.289773	2.484595	-0.0578890000000001	1.16289	0.269872	1.48924	-0.870441	3.177165	-1.285712	2.612431	-0.698262	4.276871	1.4761	-23.106871
-2.126153	-1.577396	0.146264	2.446152	0.193011	1.705316	0.433239	2.013281	-1.450423	2.494552	-2.193553	1.834592	-1.265026	3.817605	1.017987	-23.511712
-1.972564	-2.214094	-0.271972	2.088951	0.257301	1.812193	0.451094	2.196466	-1.292858	2.892356	-1.75062	2.18855	-2.417047	2.728505	-0.269912	-24.278683
-1.188555	-0.421338	1.292231	3.386613	0.289555	2.205721	0.553999	2.732777	-1.365541	3.138475	-1.641274	2.282987	-1.948134	3.261914	0.266319	-24.290531
-1.911078	-1.754232	-0.148112	2.211472	0.0513060000000001	1.718558	0.351072	2.37699	-1.486036	3.058565	-1.872582	2.119805	-1.295108	3.92403	0.968743	-24.122909
-2.043782	-0.708889	0.717339	2.916746	-0.312604	0.859221	-0.041296	1.561922	-1.138621	3.592972	-1.168407	2.723077	-1.44808	3.754872	0.757606	-24.367015
-2.095771	-0.795299	0.516015	2.682628	-0.229583	0.89213	0.0337769999999999	1.611852	-1.260305	3.418671	-1.323333	2.53158	-1.751366	3.542188	0.526759	-24.462326
-1.684509	-0.123203	0.924842	3.033259	-0.140921	1.389899	0.0711600000000001	1.900014	-2.03008	2.126466	-2.737979	1.397445	-1.768258	3.64347	0.614592	-24.228706
-1.846617	-0.876444	0.198393	2.37063	0.245305	2.269205	0.410612	2.573325	-1.993511	2.401578	-2.54312	1.505456	-2.066443	3.228252	-0.0150770000000002	-24.638634
-1.861193	-0.384024999999999	1.295768	3.30391	0.362342	2.349985	0.444387	2.573325	-1.376387	2.717659	-1.690128	2.290101	-2.038767	3.160932	-0.182388	-24.232514
-2.424073	-1.955321	0.184514	2.106509	0.369032	2.462233	0.50068	2.461152	-1.611052	1.760421	-2.190796	1.776124	-2.536217	2.633849	-1.313614	-22.626467
-1.613493	-0.85613	0.996058	2.690943	-0.275429	1.269712	-0.0312169999999999	1.324421	-1.750584	1.31606	-2.56164	1.471203	-1.74708	3.01573	-1.18612	-21.115942
-1.174898	-1.012526	0.861749	2.422011	0.280235	2.535519	0.396091	2.178758	-1.221738	1.760078	-1.788399	2.034144	-2.06454	2.505665	-1.801766	-19.293265
-0.860525	-0.701282	1.451775	2.844213	0.158243	2.425277	0.289057	1.82421	-1.148456	1.441828	-1.863771	1.940807	-1.683114	2.733409	-1.417571	-18.318666
-0.926279	-1.193088	0.889216	2.264368	0.321533	2.806459	0.462031	2.140424	-0.973563	1.402736	-1.586384	2.094502	-1.741919	2.469237	-2.265799	-19.696696
-0.256364	-0.454632	1.817117	2.91827	0.511591	3.198167	0.710866	2.353966	-0.643973	1.681188	-1.132411	2.440868	-2.453941	2.006164	-3.213899	-20.528429
-0.395241	-1.238576	0.759551	1.993405	0.32495	2.83247	0.705066	1.861054	-0.309526	1.917276	-0.817456	2.712186	-2.157643	2.468393	-2.718712	-20.263315
-0.057331	-0.731419	1.576819	2.650969	-0.176362	1.722479	0.379005	1.089545	-0.148329	1.8781	-0.778558	2.820388	-1.281316	3.27419	-1.86933	-20.052069
-0.30753	-1.058427	1.239678	2.257602	0.186081	2.077966	0.663134	1.33902	0.07184	1.917724	-0.643551	2.69145	-0.879788	3.239258	-1.711414	-19.370788
-0.103149	-0.45659	2.408574	3.071837	0.550628	2.319657	0.942077	1.614394	0.214539	2.154461	-0.440353	2.694711	-0.998788	2.993793	-1.930059	-18.600587
-0.505751	-1.069956	1.619928	2.525417	0.710734	2.518735	1.093094	1.68104	0.0285839999999999	1.760593	-0.799486	2.37143	-1.252927	2.544568	-2.356059	-19.351289
-0.326645	-0.655686	2.199224	2.994522	0.12738	1.180671	0.640093	0.596025	-0.289925	1.21485	-1.161229	1.956301	-1.09964	2.574342	-2.37395	-20.212079
-0.689956	-1.163056	1.649732	2.567838	0.943331	2.849923	1.301774	1.951929	0.0790850000000001	1.878908	-0.428854	2.437284	-1.46455	1.982428	-2.960762	-20.95767
-0.689959	-1.102032	1.831728	2.647285	0.771107	2.378438	1.107221	1.585092	0.73464	2.797253	0.682199	3.289173	-1.940002	1.365201	-3.365305	-21.333456
-0.767035	-0.748423	2.026059	2.917448	1.382809	3.87285	1.532672	2.814397	0.842171	2.916617	0.651933	3.319249	-1.072225	2.313227	-2.518683	-21.513152
-0.515737	-0.493216	2.360314	3.225118	0.634683	2.567316	0.986593	1.787302	0.423102	2.344144	-0.154589	2.742059	-1.978536	1.611525	-3.343534	-22.028922
-0.556422	-0.643031	2.1414	3.110659	0.666381	2.625294	1.031294	1.858842	0.02449	1.800273	-0.874641	2.10301	-1.809295	1.734633	-3.351861	-22.064201
-0.604295	-0.739569	1.991918	2.994804	0.558625	2.708892	1.024004	1.80863	-0.076896	1.681394	-0.997211	1.903578	-1.374221	2.179719	-3.067964	-21.926948
-0.491833	-0.784649	1.82993	2.994637	0.573577	2.77089	0.956596	1.773674	-0.0787679999999999	1.681394	-0.882802	1.947197	-1.782392	1.782726	-3.527911	-22.072542
-0.530188	-0.756567	1.643522	2.918518	0.319795	2.373284	0.754992	1.489652	-0.26534	1.602486	-1.089112	1.834592	-2.009624	1.5721	-3.914118	-22.138907
-0.642541	-1.073418	1.166419	2.689675	0.30142	2.586449	0.770735	1.747992	-0.032668	1.917165	-0.67866	2.085469	-1.08593	2.594337	-2.876425	-21.723479
-0.779805	-1.407064	0.71893	2.385137	-0.100237	1.891584	0.488164	1.255333	-0.298564	1.684058	-1.131129	1.607307	-1.893531	1.706263	-3.574961	-21.840341
-0.7326	-0.936779	1.165135	2.731377	-0.033138	2.202239	0.519118	1.479257	-0.093025	2.071641	-0.830715	1.806604	-2.320643	1.180654	-4.021109	-21.907425
-0.833539	-1.254842	0.785788	2.507598	-0.291983	1.760801	0.39424	1.136746	0.086868	2.416489	-0.416121	2.094983	-2.266472	1.188544	-3.945086	-21.951391
-1.027257	-1.360804	0.491207	2.282152	-0.191286	2.064799	0.388245	1.282615	-0.354962	1.840628	-0.986973	1.578629	-2.19904	1.226549	-3.926688	-21.818494
-1.083598	-1.71084	0.075628	2.092648	-0.347298	1.946818	0.206933	1.091995	-0.148329	2.110027	-0.650255	1.74913	-1.507602	2.032669	-2.949967	-21.448968
-0.611041	-0.651113	1.337998	3.036744	-0.155771	2.493454	0.297857	1.580423	-0.720506	1.342395	-1.400452	1.096002	-2.245269	1.172759	-3.719241	-21.197673
-1.087358	-1.954253	-0.279957	1.753955	-0.644581	1.604704	-0.06302	0.875352	-1.10813	0.734475	-1.937911	0.448463	-2.884091	0.551595	-4.200434	-20.828321
-0.568442	-0.726256	1.080482	2.773655	-0.569003	1.758821	0.094592	1.051432	-1.159579	0.694785	-1.990093	0.317222	-3.74569	-0.510211	-4.966777	-20.805867
-1.013335	-1.803167	-0.176065	1.826301	-1.113818	0.776808	-0.38761	0.217341	-1.314162	0.424239	-2.343955	0.0614410000000001	-2.199154	1.096599	-3.329093	-20.403312
-0.749317	-0.923769	0.825199	2.552222	-0.830749	1.367198	-0.195317	0.637934	-1.366659	0.417142	-2.461903	-0.085048	-2.371745	0.852071	-3.42653	-20.347904
-0.746704	-1.464006	0.073852	1.949351	-0.735511	1.544007	-0.154654	0.725105	-0.978832	0.956422	-1.848777	0.409522	-2.35303	0.826883	-3.384826	-20.489132
-0.398268	-0.567615	1.164063	2.776584	-0.311598	2.446341	0.126372	1.470378	-0.772249	1.419585	-1.480739	0.765353	-1.837975	1.434073	-3.088872	-20.626764
-0.848101	-1.748257	-0.347487	1.568587	-0.593051	2.094189	0.022205	1.21766	-0.361782	2.033268	-0.656811	1.360566	-2.450069	0.806507	-3.585138	-20.749896
-0.367434	-0.611858	1.136211	2.773655	-0.338011	2.472761	0.225164	1.66151	-0.003733	2.491007	0.046257	1.908298	-1.239052	2.025096	-2.251001	-20.148783
-0.771128	-1.464006	0.049294	1.745565	-0.55762	2.08942	0.013202	1.174002	-0.283712	1.956501	-0.538138	1.400565	-2.432906	0.848367	-3.444013	-19.983087
-0.499482	-0.479366	1.212467	2.698213	-0.717675	1.674334	-0.08557	0.803739	-0.177522	2.071972	-0.411341	1.569453	-1.651602	1.5721	-2.668776	-19.74808
-0.459876	-0.9397	0.607229	2.282152	-0.555662	1.957611	0.029249	1.0388	-0.540369	1.379568	-1.046089	1.001339	-2.567934	0.575293	-3.573496	-20.02373
-0.418124	-0.43845	1.164063	2.663527	-0.938534	1.25781	-0.304437	0.32364	-0.513329	1.529928	-0.996894	1.00901	-1.871565	1.1945	-2.965934	-20.012531
-0.836257	-1.430957	0.040031	1.714653	-0.784717	1.597911	-0.145396	0.561883	-1.292045	0.281352	-2.36219	-0.002799	-2.195436	0.867288	-3.299996	-20.112156
-0.503729	-1.103519	0.42944	2.052028	-0.537184	1.981799	0.03071	0.983356	-0.7722	1.153545	-1.281468	0.662097	-2.518432	0.519218	-3.724399	-19.91724
-0.848798	-1.821584	-0.507696	1.245383	-0.664545	1.713224	-0.119655	0.649145	-0.695047	1.229407	-1.10947	0.68835	-3.583987	-0.681268	-4.735252	-19.723068
-0.5933	-1.370633	0.023076	1.635825	0.11668	3.257291	0.501978	2.005727	-1.238982	0.253093	-2.296776	-0.155718	-3.198366	-0.247482	-4.410941	-19.169369
-0.766744	-1.54942	-0.323498	1.482179	-0.389652	2.409576	0.161912	1.361859	-0.385899	1.64993	-0.648526	1.098617	-2.574044	0.35624	-3.673037	-18.776003
-0.59083	-1.013935	0.177006	1.7212	-1.04802	0.973604	-0.445702	0.044829	-0.591362	1.260715	-0.9724	0.909658	-2.020372	0.955293	-3.187792	-18.546118
-0.974301	-1.814904	-0.869155	0.880047	-0.954987	1.334282	-0.370906	0.26359	-0.79815	1.110195	-1.085604	0.765987	-2.511777	0.328952	-3.767138	-18.488791
-0.585857	-0.807731	0.487796	1.982719	-1.146685	0.801551	-0.54744	-0.121152	-1.289027	0.301138	-1.901055	-0.0312760000000001	-2.309564	0.575293	-3.473492	-17.862
-0.876973	-1.324828	-0.201918	1.37326	-0.631521	1.780035	-0.140678	0.763426	-1.106681	0.577406	-1.809542	0.038408	-3.065419	-0.376888	-4.467462	-17.788252
-0.871143	-1.486007	-0.443471	1.148261	-0.639221	1.928351	-0.109893	0.907874	-0.541233	1.537922	-0.58933	0.993927	-2.828747	0.0699059999999998	-4.033914	-17.180424
-0.965169	-1.780933	-0.790683	0.917008	-0.833553	1.557227	-0.298103	0.607073	-0.413204	1.690348	-0.365326	1.233027	-2.585865	0.235138	-3.8284	-16.623489
-0.965169	-1.364805	-0.450348	1.230904	-1.606549	-0.153494	-0.902483	-0.719136	-0.823208	1.043023	-0.988594	0.677583	-2.518888	0.165204	-3.630054	-16.099421
-0.75232	-1.028537	0.092413	1.67307	-1.253376	0.610018	-0.687644	-0.253157	-1.157477	0.544124	-1.498027	0.19835	-3.184899	-0.587568	-4.332814	-15.962309
-0.773789	-0.808073	0.31718	1.78701	-0.819695	1.502789	-0.437332	0.276484	-0.56691	1.348785	-0.640569	0.826189	-2.876708	-0.307828	-3.981682	-15.618548
-0.871143	-1.116092	-0.106621	1.489625	-0.534136	1.862315	-0.220536	0.683554	-0.643622	1.231865	-0.805728	0.780438	-2.722394	-0.143477	-3.926529	-15.42834
-0.916646	-1.263162	-0.374579	1.222265	-1.165299	0.70466	-0.654732	-0.361004	-0.669354	1.080732	-0.960705	0.689806	-2.218072	0.347153	-3.305675	-15.034068
-1.031803	-1.644108	-0.634066	0.960485	-0.709971	1.523382	-0.339346	0.370562	-0.797713	0.971029	-1.073394	0.516964	-2.747484	-0.211823	-3.981682	-15.076781
-0.632637	-0.808556	0.514649	1.943726	-0.727742	1.469077	-0.33299	0.366379	-1.416008	0.00834699999999999	-2.231707	-0.341751	-2.685478	-0.066125	-3.759326	-14.969046
-0.974155	-1.523969	-0.477881	1.114341	-1.026561	0.783162	-0.554525	-0.090954	-1.54452	-0.185042	-2.58695	-0.578476	-2.735208	-0.202667	-3.833558	-14.969046
-0.849818	-1.115468	0.092413	1.561421	-0.897897	0.997491	-0.523055	-0.051759	-1.081045	0.577406	-1.7723	0.16746	-2.337498	0.207439	-3.57525	-14.969046
-0.828445	-1.217926	0.057732	1.444962	-0.854248	1.298112	-0.46236	0.120902	-1.3136	0.341458	-2.078427	-0.128292	-2.13988	0.460872	-3.30025	-14.915255
-0.636635	-1.160978	0.346777	1.662203	-0.249673	2.314187	-0.012394	1.066891	-1.336796	0.273695	-2.106632	-0.144105	-2.220359	0.36446	-3.446277	-14.942143
-0.828445	-1.527502	-0.297785	1.210876	-0.443072	1.795818	-0.178309	0.76541	-1.516622	0.080376	-2.359469	-0.358903	-2.271763	0.34325	-3.448601	-14.796642
-0.628943	-1.012678	0.468953	1.716824	-0.619137	1.639369	-0.305574	0.541668	-1.594702	-0.116502	-2.448849	-0.381077	-2.400391	0.355466	-3.557668	-14.540142
-0.925729	-1.628532	-0.468693	1.031185	-0.333295	2.202239	-0.08714	0.946339	-1.43725	0.241502	-1.990591	-0.106011	-2.512377	0.0711190000000002	-3.798643	-14.220579
-0.974287	-1.465911	-0.304186	1.034321	-0.854248	1.379427	-0.523055	0.277437	-1.673886	-0.122792	-2.393694	-0.311595	-2.758441	-0.134196	-3.946391	-13.744588
-0.880197	-1.291318	-0.141104	1.179422	-0.937245	1.386462	-0.543938	0.20765	-1.723919	-0.116502	-2.299991	-0.267567	-2.641719	-0.0856000000000001	-3.729098	-13.508083
-0.744105	-0.706406	0.56488	1.826301	-0.541985	2.154426	-0.33299	0.727014	-1.441576	0.147258	-2.058179	-0.138858	-2.986657	-0.495605	-4.183028	-13.545493
-0.828883	-0.910784	0.264075	1.559054	-0.332698	2.505154	-0.16847	1.123826	-1.390426	0.298627	-2.191492	-0.138858	-2.580501	0.0118779999999998	-3.69275	-13.28374
-0.693204	-0.620451	0.569153	1.758217	-0.725358	1.754401	-0.533359	0.43725	-1.054047	0.806268	-1.480739	0.321177	-2.043898	0.591647	-3.280978	-13.023191
-0.732399	-0.866834	0.33107	1.642649	-0.923632	1.279791	-0.633125	0.203187	-1.131481	0.726741	-1.48761	0.326888	-2.275586	0.2147	-3.515055	-12.934078
-0.856245	-0.939128	0.159268	1.607957	-1.185384	0.815809	-0.815186	-0.243526	-1.337413	0.376882	-1.789101	0.0221859999999998	-2.276547	0.24246	-3.498971	-12.789716
-0.844032	-1.246018	-0.123986	1.290898	-0.851488	1.469077	-0.54796	0.151117	-1.443649	0.130983	-2.029245	-0.069018	-2.403596	0.050049	-3.695175	-12.675076
-0.587163	-1.012678	0.359954	1.670874	-0.699931	1.537128	-0.479055	0.129795	-1.419294	0.12564	-1.988172	0.0335089999999998	-1.750038	0.703755	-3.035681	-12.582987
-0.834623	-1.512066	-0.271956	1.245383	-0.741913	1.489968	-0.516589	0.056307	-1.263323	0.324449	-1.728459	0.151994	-1.048001	1.499598	-2.425039	-12.442982
-0.532827	-0.794287	0.58036	1.945589	-1.122941	0.713007	-0.744784	-0.545676	-0.952219	0.761013	-1.219944	0.546642	-2.231137	0.21668	-3.478949	-12.351313
-0.837902	-1.597456	-0.496282	0.950763	-0.70338	1.604851	-0.372468	0.351404	-1.20909	0.379285	-1.647302	0.113071	-1.745551	0.744838	-2.868321	-11.952951
-0.705602	-1.697726	-0.434333	0.920305	-0.886036	1.185426	-0.406078	-0.0265500000000001	-1.750388	-0.509404	-2.644189	-0.678972	-2.488191	-0.056057	-3.515055	-11.927452
-0.645149	-1.921365	-0.549303	0.873363	-0.544647	1.814739	-0.118027	0.65001	-1.260748	0.381699	-1.619452	0.0488870000000001	-2.869174	-0.368577	-3.874591	-12.029515
-0.296245	-0.765091	0.892264	1.980913	-0.393713	2.005328	0.030173	1.009577	-1.414646	0.115112	-1.869218	-0.201936	-2.149729	0.45202	-3.191623	-11.952951
-0.711779	-1.682114	-0.512265	0.813152	-1.161548	0.536877	-0.598497	-0.263213	-1.488814	0.129336	-1.846441	-0.227015	-3.153654	-0.72182	-4.198192	-11.97846
-0.356793	-0.794198	0.780632	1.793182	-1.039974	0.729695	-0.481171	-0.012634	-1.719932	-0.212361	-2.302963	-0.534183	-3.468068	-1.043548	-4.42971	-11.735054
-0.540501	-1.33308	0.040031	1.154236	-1.311199	0.224021	-0.690048	-0.405594	-2.342525	-1.148715	-3.439289	-1.483708	-2.993194	-0.583846	-3.892307	-11.380547
-0.619473	-1.593325	-0.21783	0.863686	-1.738125	-0.655199	-1.073855	-1.217264	-1.847707	-0.401663	-2.779438	-0.91866	-2.096657	0.526465	-3.007804	-11.028244
-0.763145	-1.860624	-0.624665	0.548672	-1.42952	0.064125	-0.876064	-0.667318	-1.511737	0.140882	-2.174653	-0.385425	-2.94407	-0.427965	-3.767747	-11.128679
-0.501521	-1.275057	0.288524	1.34708	-1.064033	0.729695	-0.673076	-0.086217	-0.846348	1.286284	-0.803113	0.683874	-2.383607	0.237461	-3.200431	-11.164988
-0.476128	-1.071949	0.402649	1.45003	-0.584903	1.773619	-0.293624	0.807266	-1.457116	0.408951	-1.887612	-0.156849	-2.061933	0.583728	-2.878373	-11.316043
-0.524017	-1.263162	0.290568	1.296384	-0.822307	1.298112	-0.468645	0.460206	-1.281622	0.586129	-1.663199	0.181801	-1.215595	1.663878	-1.9643	-10.927987
-0.551824	-1.319222	0.193579	1.27062	-1.536127	0.092545	-1.006519	-0.709379	-1.077185	0.928364	-1.260631	0.516964	-1.343169	1.441428	-2.177338	-11.003163
-0.579506	-1.684413	-0.363684	0.776389	-1.211113	0.524276	-0.777502	-0.218717	-1.611919	0.092006	-2.186255	-0.275714	-2.901339	-0.242647	-3.767608	-11.254474
-0.588342	-1.834304	-0.503029	0.655194	-0.976307	1.123102	-0.650035	0.103159	-1.099737	0.825034	-1.360828	0.328882	-1.918583	0.886474	-2.673844	-10.927987
-0.464971	-1.659711	-0.184339	0.994197	-0.806712	1.395787	-0.460249	0.449268	-1.579142	0.115696	-2.097576	-0.319286	-2.347126	0.456135	-2.991282	-10.777933
-0.369647	-1.38005	0.083005	1.10827	-0.79154	1.341522	-0.445702	0.449268	-1.685484	-0.084545	-2.249554	-0.390164	-2.628905	0.0604210000000001	-3.277737	-10.578476
-0.739144	-2.308597	-1.075098	0.161141	-1.082331	0.70466	-0.675456	-0.154103	-1.02566	0.935269	-1.03394	0.67945	-2.140146	0.609553	-2.629464	-10.454171
-0.403864	-1.362065	0.107553	1.166289	-0.780044	1.305341	-0.310106	0.53782	-1.330259	0.446111	-1.57319	0.181077	-2.420943	0.385927	-3.045754	-10.728003
-0.81437	-1.992249	-0.767231	0.44274	-1.06572	0.85504	-0.556364	0.029095	-1.486423	0.129336	-1.874317	-0.0680859999999999	-3.195932	-0.675685	-3.997614	-10.991988
-0.630982	-1.789471	-0.546626	0.772859	-0.776289	1.388636	-0.314579	0.449268	-1.025274	0.785773	-1.223578	0.412961	-1.959256	0.604721	-2.806033	-10.592194
-0.832345	-2.304717	-1.222132	0.24314	-1.006746	0.768558	-0.602435	-0.144558	-1.075888	0.676112	-1.477233	0.22831	-2.231137	0.237461	-3.066702	-10.442995
-0.477661	-1.071426	0.418559	1.494639	-0.755647	1.265136	-0.320232	0.250996	-0.94761	0.763027	-1.051261	0.468672	-2.666188	-0.241654	-3.417918	-10.219931
-0.7603	-1.729027	-0.425204	0.820121	-0.97801	0.752051	-0.487454	-0.158871	-1.102997	0.443638	-1.549827	0.218254	-1.638336	0.834147	-2.432926	-9.850096
-0.490289	-0.968849	0.664758	1.688743	-0.837536	1.021989	-0.38655	0.00200100000000003	-0.872387	0.832873	-1.021764	0.612177	-2.011599	0.421633	-2.843952	-9.935045
-0.421284	-1.158801	0.426505	1.457707	-0.512848	1.563997	-0.142442	0.464142	-1.07676	0.562389	-1.411931	0.360647	-1.594468	0.864991	-2.397893	-9.861271
-0.324055	-0.866674	0.805682	1.771264	-0.85826	0.918425	-0.418401	-0.075171	-1.744248	-0.442464	-2.678721	-0.610886	-2.31662	0.061661	-3.120472	-10.10756
-0.661818	-1.537533	0.014014	1.080569	-0.79794	1.075851	-0.334884	0.185797	-1.026412	0.632334	-1.501489	0.319317	-2.629324	-0.192777	-3.331905	-10.058217
-0.450402	-0.63519	1.088115	2.030624	-0.75015	1.052763	-0.322093	0.172795	-0.440399	1.581484	-0.362929	1.269443	-1.141853	1.288554	-2.091386	-9.787593
-0.739589	-1.246018	0.298681	1.341615	-0.351104	1.698702	-0.077473	0.679807	-1.178042	0.41404	-1.511713	0.207414	-1.17599	1.280965	-1.921385	-9.651696
-0.492779	-0.707836	0.828022	1.889715	-0.780044	1.083547	-0.368568	0.168703	-1.281005	0.371821	-1.598117	0.0647789999999999	-1.69968	0.587434	-2.518634	-9.823314
-0.811547	-1.360609	0.082288	1.279195	-1.268683	0.280221	-0.719216	-0.558798	-1.275152	0.319582	-1.551794	0.102274	-2.506325	-0.262235	-3.277737	-9.984282
-0.567423	-0.822915	0.699132	1.782427	-1.488448	-0.0786669999999999	-0.93654	-0.959849	-0.391366	1.664751	-0.086257	1.261253	-1.564744	0.708606	-2.285671	-9.627222
-0.7727	-1.215942	0.185296	1.428735	-0.905503	0.895368	-0.531171	-0.150222	-0.970471	0.926317	-0.788722	0.586619	-2.426923	-0.271579	-3.123908	-9.823314
-0.668485	-0.765425	0.725596	1.81666	-1.495838	-0.217325	-1.024388	-1.102132	-1.405155	0.192363	-1.683586	-0.0191629999999999	-1.890726	0.328952	-2.651263	-9.529428
-0.94634	-1.304076	-0.00333800000000001	1.163263	-1.181876	0.541697	-0.722815	-0.410768	-1.045587	0.702877	-1.011935	0.466948	-1.697899	0.535225	-2.509808	-9.469422
-0.555131	-0.779857	0.600177	1.739129	-1.517077	-0.15052	-0.989621	-0.993318	-1.707403	-0.291696	-2.173865	-0.360077	-1.547913	0.665019	-2.262959	-9.250191
-0.722117	-1.460721	-0.173709	0.990073	-1.76439	-0.582636	-1.178844	-1.267277	-0.920688	0.84293	-0.829945	0.729493	-1.594722	0.690762	-2.335418	-9.285681
-0.306326	-0.563599	1.027972	1.930361	-1.318463	0.177044	-0.882012	-0.689364	-1.377707	0.192363	-1.77204	0.070315	-1.575736	0.750986	-2.213237	-9.407424
-0.706785	-1.099897	0.185296	1.426083	-0.817015	1.028762	-0.532919	0.0310180000000001	-1.357603	0.246911	-1.632987	0.24022	-1.313544	1.092834	-1.986405	-9.445021
-0.469109	-0.79417	0.680449	1.748343	-1.165299	0.336278	-0.792062	-0.580257	-1.227415	0.448592	-1.326287	0.482181	-1.471503	0.902755	-2.296907	-9.689504
-0.745658	-1.229874	0.048001	1.279195	-1.005151	0.840281	-0.673076	-0.184037	-1.020091	0.771587	-0.877966	0.717856	-2.340143	-0.004799	-3.101939	-9.995455
-0.48657	-0.6792	0.672782	1.821068	-1.170777	0.489394	-0.799676	-0.432655	-0.895238	0.951523	-0.770607	0.887385	-1.94028	0.482561	-2.639478	-9.823314
-0.739589	-1.229874	0.039515	1.279195	-0.669021	1.301789	-0.426959	0.19014	-1.356906	0.206842	-1.525664	0.388853	-1.580941	0.811805	-2.393669	-9.627222
-0.540183	-0.592916	0.767248	1.893902	-0.893009	0.902478	-0.583845	-0.173162	-0.82063	1.02023	-0.688761	0.943591	-1.490118	0.935261	-2.436681	-9.665008
-0.754583	-1.040591	0.30479	1.504786	-0.442337	1.611501	-0.270793	0.375971	-1.153246	0.436285	-1.370405	0.537267	-1.978173	0.285886	-2.969788	-9.714011
-0.405448	-0.119929	1.452179	2.41088	-0.678956	1.091245	-0.483276	-0.045065	-0.999205	0.557758	-1.230043	0.6675	-2.058635	0.270691	-3.103825	-9.763055
-0.667939	-0.981667	0.44777	1.588142	-0.874957	0.823968	-0.554525	-0.357711	-0.872387	0.862336	-0.949528	0.840793	-2.115578	0.258495	-3.122242	-9.640523
-0.568114	-0.982742	0.463657	1.590631	-1.139172	0.309019	-0.766792	-0.808871	-0.289699	1.696294	0.012334	1.521905	-1.882837	0.652466	-2.588622	-9.689504
-0.536694	-1.129694	0.592429	1.661308	-0.242813	2.182847	-0.036592	0.82812	-1.153246	0.438725	-1.515202	0.360647	-2.617239	-0.153957	-3.417077	-10.058217
-0.799013	-1.599442	-0.088906	1.132755	-0.77881	0.974225	-0.406078	-0.051759	-1.429522	0.002077	-2.066276	-0.123526	-3.294451	-0.905111	-4.028476	-9.959658
-0.384743	-0.998317	0.637947	1.693317	-0.166816	2.252698	0.070258	1.032261	-0.416185	1.51156	-0.239983	1.324596	-1.564744	0.943374	-2.432926	-9.493833
-0.676159	-1.908271	-0.434333	0.896891	-0.603457	1.45698	-0.266214	0.380081	-1.251355	0.314043	-1.535052	0.222531	-3.080272	-0.679089	-3.730989	-9.407424
-0.304826	-1.306468	0.437354	1.494639	-0.386815	1.922208	-0.10649	0.79319	-0.669303	1.209183	-0.654122	0.994767	-1.510515	1.077019	-2.23554	-8.970369
-0.238122	-1.37728	0.245897	1.352583	-0.554275	1.503911	-0.201153	0.375971	-0.745225	0.986657	-0.742427	0.919025	-2.036193	0.460872	-2.696284	-8.994561
-0.482848	-1.406282	0.203191	1.313064	-0.233881	2.158791	-0.020453	0.887074	-1.558731	-0.104969	-2.022593	-0.181408	-2.781998	-0.309452	-3.403291	-8.994561
-0.405448	-1.494949	0.117536	1.197009	-0.175308	2.158791	-0.020453	0.994344	-1.100702	0.498	-1.346967	0.353671	-2.055145	0.430542	-2.749707	-8.946186
-0.300394	-0.735966	0.96185	1.873403	0.383131	3.150652	0.374518	1.646433	-0.643802	1.176603	-0.597774	1.007868	-1.143139	1.264071	-1.966124	-8.512659
-0.310893	-1.085034	0.649498	1.651896	-0.125217	2.111906	0.039591	0.921704	-0.593029	1.111151	-0.499386	1.05327	-1.612214	0.867288	-2.217175	-8.39282
-0.265628	-0.47763	1.074962	2.001427	-0.545497	1.309124	-0.23693	0.371865	-0.999205	0.534875	-1.233274	0.53739	-1.073857	1.396875	-1.676305	-8.321039
-0.331468	-0.923637	0.5738	1.556699	-0.621096	1.247433	-0.289083	0.328912	-0.720023	0.945998	-0.807561	0.899534	-1.112527	1.460358	-1.754324	-8.536657
-0.322855	-0.865818	0.513517	1.595638	-0.812048	0.974225	-0.383173	0.125346	-0.975896	0.704956	-1.237956	0.647475	-0.787446	1.814662	-1.441972	-8.656799
-0.758005	-2.065069	-0.864258	0.466999	-1.165299	0.372558	-0.562554	-0.283032	-0.948618	0.752573	-1.106357	0.681549	-1.63987	0.910889	-2.27032	-8.946186
-0.305653	-0.851308	0.623386	1.59313	-0.99922	0.793305	-0.506279	-0.0496859999999999	-0.896831	0.793794	-1.165914	0.669765	-2.225346	0.307032	-2.800475	-9.164199
-0.553325	-1.604442	-0.286284	0.900283	-0.200157	2.147156	0.128844	1.22862	-0.66873	1.175064	-0.651046	1.039549	-1.885514	0.646089	-2.487224	-9.139934
-0.450295	-0.880353	0.405602	1.546542	-0.764576	1.217745	-0.322093	0.479666	-0.542641	1.286284	-0.456584	1.223609	-1.771454	0.753229	-2.462857	-8.994561
-0.347749	-1.209974	0.166775	1.363698	-0.981036	0.793305	-0.483276	0.0594260000000001	-0.923002	0.787761	-1.079141	0.808902	-1.441841	1.156089	-2.001324	-8.753098
-0.406943	-1.208613	0.073262	1.257287	-1.16714	0.456859	-0.596253	-0.26813	-0.694934	0.969354	-0.906117	0.961811	-1.084997	1.567645	-1.584472	-8.356127
-0.689977	-1.672411	-0.525111	0.721251	-1.161548	0.447972	-0.598497	-0.347692	-1.382181	-0.165177	-2.106632	-0.056886	-1.662841	0.800917	-2.262959	-8.344956
-0.203549	-0.69365	0.718009	1.814472	-0.653445	1.223007	-0.222282	0.328912	-1.052197	0.401394	-1.567366	0.345606	-1.343194	1.23404	-1.843302	-7.950901
-0.618774	-1.70352	-0.354641	0.86714	-0.773514	1.052011	-0.389073	0.0943079999999999	-0.669103	0.949669	-0.874279	0.735349	-2.3911	-0.046408	-2.892129	-7.974658
-0.458988	-1.355912	0.099139	1.132755	-0.704494	1.122036	-0.349533	0.103159	-0.745225	0.721823	-1.157736	0.551944	-1.529931	0.739224	-2.133368	-7.666594
-0.524413	-1.411302	0.013751	1.029747	-0.504847	1.530254	-0.135898	0.518667	-0.643802	1.023674	-0.826037	0.686421	-1.401656	0.811805	-1.921686	-7.560971
-0.279906	-0.894478	0.660931	1.624711	-0.765746	0.958286	-0.343158	-0.0496859999999999	-0.64389	0.981338	-0.8346	0.723662	-1.959256	0.274156	-2.45376	-7.821096
-0.63679	-1.32727	0.022264	1.172366	-0.640676	1.083547	-0.353333	-0.028525	-0.517014	1.055741	-0.635251	0.881348	-2.244102	0.0414239999999999	-2.722636	-8.034817
-0.48254	-0.924093	0.595818	1.578285	-0.61322	1.161132	-0.334884	0.029095	-1.127427	0.217966	-1.625826	0.0336470000000001	-1.303905	1.053785	-1.902234	-7.86852
-0.550653	-1.298611	0.210125	1.321526	-0.994724	0.588628	-0.569187	-0.497284	-0.973918	0.453586	-1.284745	0.264586	-1.269565	0.951484	-1.931788	-7.963488
-0.603941	-1.677363	-0.14928	0.976847	-0.495355	1.503911	-0.140825	0.394406	-1.303678	-0.034743	-1.9147	-0.212782	-1.619024	0.604721	-2.16768	-8.045988
-0.456433	-1.126298	0.526974	1.619874	-1.140894	0.280221	-0.606946	-0.751689	-0.618422	0.951523	-0.877184	0.609241	-1.411691	0.850729	-1.975135	-7.855974
-0.574859	-1.010428	0.603538	1.583193	-0.738966	0.881042	-0.316475	-0.125437	-0.99804	0.311287	-1.387829	0.253925	-1.328511	1.037844	-1.989994	-7.761204
-0.769715	-1.71651	-0.268416	0.877544	-0.77232	0.788037	-0.389474	-0.223806	-0.86982	0.702877	-0.910644	0.575451	-1.593014	0.570195	-2.148984	-7.679062
-0.769715	-1.455048	0.013751	1.072577	-0.81334	0.556306	-0.454029	-0.424231	-1.172955	0.252213	-1.518201	0.081947	-1.708472	0.478554	-2.209514	-7.702709
-0.672309	-1.342389	0.286792	1.327212	-1.120756	0.0748769999999999	-0.681558	-0.810223	-1.198007	0.288671	-1.391544	0.144351	-2.051468	0.088848	-2.548662	-7.690231
-0.687074	-1.15398	0.371412	1.330067	-0.712263	0.657457	-0.422839	-0.277351	-1.377707	0.088043	-1.742697	0.02854	-1.993432	0.0785799999999999	-2.584752	-7.702709
-0.627988	-0.937722	0.531868	1.556699	-0.796695	0.686704	-0.468585	-0.253157	-1.40041	0.054528	-1.751843	-0.012961	-2.567953	-0.503289	-3.151678	-7.963488
-0.560071	-0.837142	0.752175	1.668473	-0.905503	0.483495	-0.564226	-0.326741	-1.373005	0.060825	-1.792176	-0.022936	-2.337613	-0.230634	-2.850409	-7.892247
-0.563359	-1.540569	-0.070877	0.967259	-0.81334	0.678195	-0.541299	-0.21887	-1.246023	0.288671	-1.665298	0.092066	-2.015831	0.157197	-2.379385	-7.87969
-0.572112	-1.411302	0.141139	1.075816	-1.049103	0.196142	-0.717861	-0.74762	-1.649958	-0.313609	-2.225713	-0.373946	-2.253132	-0.0661589999999999	-2.649944	-7.87969
-0.610407	-1.397949	0.209111	1.148322	-0.973496	0.242444	-0.703357	-0.679408	-1.678094	-0.361145	-2.274765	-0.265957	-1.995255	0.126622	-2.418976	-7.821096
-0.663489	-1.224928	0.319388	1.335805	-0.570104	1.122036	-0.460249	-0.0767350000000001	-1.220405	0.179378	-1.613873	0.243356	-1.801515	0.233216	-2.250407	-7.86852
-0.625167	-1.253502	0.505637	1.411248	-0.14192	1.771889	-0.169794	0.54212	-1.347265	0.136876	-1.77204	0.044686	-1.761091	0.251696	-2.351618	-7.963488
-0.692996	-1.195044	0.539706	1.374953	-0.166816	1.831544	-0.198893	0.408963	-1.144962	0.442715	-1.405213	0.321371	-2.091834	-0.152451	-2.701466	-8.106238
-0.578111	-1.151648	0.649749	1.489273	-0.233476	1.652351	-0.2198	0.242515	-1.324559	0.091124	-1.711273	0.081161	-1.561875	0.540215	-2.231811	-8.082421
-0.575339	-1.050346	0.767248	1.455777	-0.418423	1.152828	-0.317059	-0.0482319999999998	-1.427082	-0.02507	-1.8186	-0.034309	-1.1966	0.87556	-1.901224	-7.927155
-0.628282	-1.093536	0.759714	1.491963	-0.343046	1.152828	-0.362634	-0.223218	-1.982119	-0.996243	-2.899283	-0.905093	-0.996956	0.991955	-1.668916	-7.87969
-0.507686	-0.779099	1.274147	1.900263	-0.175308	1.645534	-0.207057	0.101901	-1.628159	-0.430257	-2.238245	-0.364722	-1.598212	0.331377	-2.213122	-8.011031
-0.557347	-1.05133	0.950428	1.670881	-0.091795	1.778429	-0.075895	0.374748	-1.603172	-0.393854	-2.262158	-0.302076	-2.161867	-0.289328	-2.749197	-8.106238
-0.366261	-0.722135	1.404601	2.007261	-0.066939	1.852728	0.039591	0.534246	-1.223689	0.282985	-1.569626	0.107413	-1.074811	0.936827	-1.601087	-7.892247
-0.775569	-1.770755	0.039515	0.953697	-0.143028	1.87477	0.088936	0.587942	-1.326745	0.124723	-1.583878	0.0336470000000001	-1.495214	0.613354	-1.960303	-7.963488
-0.378527	-0.850459	1.294798	1.859636	-0.455175	1.19294	-0.170144	0.0608529999999999	-1.733544	-0.478277	-2.194516	-0.529947	-1.953717	0.0509280000000001	-2.444286	-8.082421
-0.760831	-1.713859	0.159268	0.957076	-0.453187	1.137432	-0.210596	-0.0188699999999999	-2.496134	-1.689173	-3.521398	-1.584128	-2.831884	-0.871247	-3.319455	-8.249348
-0.522419	-1.698302	0.278627	1.03631	-1.120756	-0.156855	-0.739843	-1.201226	-2.412553	-1.398618	-3.365565	-1.479993	-2.701794	-0.679089	-3.235733	-8.106238
-0.672428	-2.191253	-0.320474	0.475128	-0.926431	0.242444	-0.574892	-0.724986	-1.671539	-0.215647	-1.99468	-0.436489	-2.344012	-0.297742	-2.818278	-8.011031
-0.367408	-1.350729	0.718009	1.272239	-0.522368	1.106639	-0.391469	-0.101482	-1.118848	0.598436	-1.051261	0.393694	-1.445394	0.764499	-1.867369	-7.903417
-0.628282	-1.972772	-0.148446	0.667481	-0.360855	1.471117	-0.231591	0.27225	-1.394594	0.297265	-1.476773	0.0669379999999999	-1.372685	0.887807	-1.707006	-8.022202
-0.528426	-1.956896	-0.164911	0.711124	-1.041609	0.28879	-0.810007	-0.770277	-2.200933	-0.756662	-2.889379	-1.044753	-2.012087	0.292454	-2.348591	-8.093591
-0.584095	-2.223648	-0.388782	0.547418	-0.534136	1.299432	-0.381388	0.140449	-1.940801	-0.407137	-2.396029	-0.617491	-2.107536	0.34325	-2.394823	-8.141235
-0.317113	-1.253502	0.683867	1.453032	-0.258676	1.871793	-0.294301	0.550012	-1.362945	0.489635	-1.360578	0.171004	-1.78529	0.669589	-2.066277	-8.093591
-0.516397	-1.64387	0.098756	0.963857	-0.316672	1.865433	-0.248846	0.687307	-1.317666	0.622767	-1.26915	0.389341	-0.591208	1.998929	-0.987671	-7.93973
-0.451292	-1.472271	0.319388	1.299511	-0.824597	1.044517	-0.609197	0.015272	-1.337438	0.598436	-1.128586	0.408822	-1.901719	0.649016	-2.088192	-8.356127
-0.681139	-1.979447	-0.402064	0.667481	-1.41071	-0.10386	-1.102824	-0.936427	-1.62085	0.124723	-1.722005	0.138807	-0.612507	2.006201	-0.890904	-8.117408
-0.40945	-1.313696	0.555366	1.450296	-0.866609	0.804686	-0.611556	-0.101482	-1.52628	0.41149	-1.597149	0.138729	-0.908328	1.780909	-1.150878	-8.165071
-0.601184	-1.855042	0.00519999999999998	1.026476	-1.014253	0.512401	-0.745877	-0.317589	-1.198007	0.715415	-1.268345	0.496825	-2.094585	0.544103	-2.17163	-8.236641
-0.318124	-1.286366	0.752175	1.590631	-0.551652	1.45698	-0.418643	0.406546	-0.793759	1.250608	-0.674982	1.033331	-1.308818	1.412291	-1.558507	-8.212775
-0.432931	-1.403113	0.500457	1.397475	-0.424241	1.638721	-0.281656	0.603237	-1.171751	0.650203	-1.122891	0.58344	-1.687335	0.965886	-1.931788	-8.356127
-0.250264	-1.462505	0.664758	1.504786	-0.199402	2.123749	-0.090486	1.029001	-0.794973	1.322116	-0.36289	1.160099	-0.506462	2.279211	-0.710539	-8.093591
-0.486066	-1.826264	0.150936	1.056499	-0.644603	1.067588	-0.437332	0.0773430000000001	-1.329569	0.369235	-1.387829	0.444706	-1.235305	1.354538	-1.564413	-8.212775
-0.326725	-1.591181	0.611253	1.400211	-0.605323	1.240009	-0.300982	0.199102	-1.127906	0.667538	-1.115689	0.635609	-1.289065	1.372273	-1.607314	-8.273235
-0.352571	-1.797468	0.25409	1.166289	-0.234631	1.705316	-0.098364	0.541668	-1.130194	0.504239	-1.21361	0.607284	-0.383058	2.445315	-0.723578	-8.177747
-0.178237	-1.315162	0.935913	1.697932	0.025419	2.288634	0.138599	1.003156	-1.206051	0.278949	-1.532634	0.383163	-0.625291	2.131793	-0.999738	-8.249348
-0.090937	-0.953791	1.455756	2.100944	0.133903	2.456928	0.251962	1.161772	-1.12975	0.391463	-1.435667	0.479088	-1.17035	1.412291	-1.61575	-8.608712
-0.387142	-1.619925	0.588091	1.431399	-0.192619	1.952985	0.138599	0.82812	-1.309471	0.158308	-1.612344	0.234692	-1.20062	1.354538	-1.754324	-8.680858
-0.4107	-1.533642	0.676515	1.465472	-0.260668	1.584334	0.031455	0.596454	-1.026776	0.471331	-1.267134	0.545857	-1.595712	0.862015	-2.205018	-8.873701
-0.499984	-1.661812	0.407944	1.360906	-0.404163	1.240009	-0.073399	0.199102	-0.669432	1.010192	-0.654122	0.981666	-1.710227	0.774048	-2.374512	-8.946186
-0.570871	-1.781745	0.306788	1.239621	-0.447076	1.217745	-0.173331	0.186308	-1.12975	0.278949	-1.453103	0.403725	-2.022764	0.438483	-2.648481	-8.994561
-0.485115	-1.721667	0.357465	1.318697	-0.294264	1.63828	0.008609	0.456273	-1.1293	0.321602	-1.394568	0.392433	-1.422504	1.069606	-1.99641	-8.84956
-0.555988	-1.533642	0.495643	1.428735	-0.496825	1.138313	-0.194723	0.015533	-0.746035	0.894258	-0.813215	0.860418	-1.926742	0.464951	-2.41273	-8.86073
-0.333824	-0.779857	1.462272	2.142915	-0.16806	1.780035	0.135063	0.744098	-1.104706	0.198599	-1.588108	0.244587	-2.280311	0.0332319999999999	-2.821265	-8.909023
-0.0953580000000001	-0.433881	1.951856	2.517466	-0.438362	1.177913	-0.135547	0.0504889999999999	-1.078014	0.284242	-1.522178	0.249156	-0.796231	1.701301	-1.399751	-8.488671
-0.393366	-0.968044	1.233507	1.953159	-0.648585	0.934372	-0.329422	-0.238188	-0.669497	0.890713	-0.87315	0.764998	-0.917713	1.426864	-1.532066	-8.512659
-0.361202	-0.765425	1.475298	2.106068	0.0421260000000001	2.288634	0.15218	0.82812	-1.360325	-0.256384	-2.038359	-0.130249	-1.882993	0.552782	-2.416156	-8.536657
-0.481504	-1.450577	0.680994	1.529143	0.134299	2.341333	0.256736	0.936374	-1.697484	-0.813253	-2.70615	-0.583745	-0.964781	1.542475	-1.392244	-8.321039
-0.419379	-1.639876	0.50684	1.378575	-0.573529	1.020856	-0.211141	0.00200100000000003	-1.12975	0.051724	-1.546317	0.265414	-1.720782	0.685942	-2.259035	-8.488671
-0.579656	-1.715697	0.42152	1.336186	-0.168247	1.862315	0.125915	0.691163	-0.848945	0.501958	-1.314185	0.531414	-0.506176	1.961242	-1.142783	-8.273235
-0.337716	-1.157048	0.948737	1.799454	-0.159899	1.903815	0.080179	0.723002	-0.464572	1.117058	-0.475114	1.250632	-0.568525	1.908084	-1.239898	-8.332209
-0.642418	-1.726625	0.229493	1.191111	-0.033331	1.975742	0.210256	0.810912	-1.054047	0.117938	-1.667984	0.287427	-0.723399	1.753894	-1.414417	-8.512659
-0.426781	-1.083536	1.012065	1.842617	-0.463253	1.367198	-0.076298	0.217236	-0.847904	0.59279	-1.154575	0.580475	-1.542808	0.828869	-2.312315	-8.753098
-0.58575	-1.510344	0.618916	1.526698	-0.159352	1.786457	0.157857	0.596454	-0.797713	0.615174	-1.113035	0.685463	-1.106663	1.313367	-1.781103	-8.656799
-0.307991	-0.881243	1.260776	2.065707	-0.439531	1.140363	-0.034523	0.125416	-0.363306	1.198007	-0.406683	1.249641	-1.175708	1.250516	-1.895606	-8.801308
-0.618237	-1.610926	0.357465	1.344343	-0.456986	1.077494	-0.00604299999999999	0.148154	-0.439134	1.07926	-0.538138	1.058209	-1.781484	0.550288	-2.594072	-9.128761
-0.464069	-1.213726	0.744631	1.771264	-0.645116	0.998917	-0.15268	-0.136876	-0.541077	0.880381	-0.745934	0.891326	-1.115943	1.298619	-1.995877	-9.031804
-0.647473	-1.597456	0.298681	1.45258	-0.159899	1.795818	0.265802	0.630749	-0.643254	0.792154	-0.90169	0.845051	-0.960658	1.478114	-1.801542	-9.007591
-0.383305	-1.040591	0.943173	1.991928	-0.796057	0.536877	-0.240695	-0.559675	-0.74648	0.55236	-1.276156	0.682139	-0.592992	1.834134	-1.344315	-8.814256
-0.590328	-1.482906	0.54162	1.675277	-0.302867	1.381488	0.147638	0.322947	-0.901514	0.286233	-1.570898	0.332625	-0.962842	1.339708	-1.792566	-8.935013
-0.338505	-0.924823	1.129605	2.216694	-0.592782	0.886527	-0.134837	-0.33183	-0.772077	0.535256	-1.204098	0.557521	-1.417422	0.853254	-2.327752	-9.056028
-0.504064	-1.320461	0.676515	1.869436	-0.134256	1.631586	0.193306	0.440594	-0.927301	0.13367	-1.724839	0.359076	-0.714862	1.720127	-1.625998	-8.84956
-0.272338	-0.706823	1.330013	2.475812	-0.363318	1.427381	0.061704	0.441296	-0.051436	1.686145	-0.059932	1.619714	-0.378265	2.146937	-1.135256	-8.63275
-0.602631	-1.760434	0.00549899999999998	1.301907	-0.685057	0.735538	-0.095437	0.00601600000000002	-0.643021	0.788755	-1.017454	0.80561	-0.672193	1.927545	-1.281437	-8.680858
-0.11189	-0.676583	1.547662	2.47018	-0.126232	1.933529	0.333424	0.994808	-0.358083	1.332948	-0.509533	1.176189	-0.651995	1.935567	-1.182388	-8.729008
-0.475314	-1.644108	0.402649	1.45003	-0.729651	0.702498	-0.166142	-0.020483	-0.979672	0.238087	-1.690163	0.232115	-1.63286	0.756196	-2.151954	-8.970369
-0.054589	-0.750077	1.601644	2.472391	-0.100636	1.814739	0.283458	0.974606	-1.030584	0.130983	-1.931592	0.177339	-2.314069	0.046519	-2.776536	-9.042977
-0.33617	-1.525764	0.487796	1.568587	-0.328291	1.455165	0.17845	0.712538	-0.387794	1.152217	-0.648526	1.000562	-1.303706	1.093067	-1.792566	-8.656799
-0.250721	-1.642019	0.503484	1.460285	-0.829724	0.519604	-0.222602	-0.00283299999999997	-0.643622	0.761013	-1.073317	0.697565	-2.050727	0.380949	-2.471563	-8.656799
-0.558641	-2.295982	-0.323498	0.765822	-1.229995	-0.278103	-0.501729	-0.782943	-1.261278	-0.242352	-2.037871	-0.062907	-1.61737	0.877599	-1.956391	-8.416767
-0.0695319999999999	-1.18958	1.289692	1.980913	-0.286782	1.645943	0.244851	0.926373	-0.59153	0.830521	-0.965224	0.851391	-1.124124	1.317442	-1.484406	-8.249348
-0.0526420000000001	-1.499902	0.968103	1.670874	-0.312976	1.372394	0.190208	0.799537	-0.694726	0.633179	-1.045064	0.740738	-1.477413	1.134215	-1.638474	-8.117408
0.148448	-1.013088	1.595328	2.170332	-0.313599	1.648514	0.226125	0.931386	-0.927777	0.283786	-1.476222	0.435272	-1.898691	0.554771	-2.146198	-8.201604
0.130132	-1.307574	1.304605	1.899004	0.119071	2.330149	0.506331	1.501265	-0.85024	0.471224	-1.341502	0.583105	-1.033416	1.592011	-1.428507	-8.106238
0.183232	-1.321641	1.269498	1.938208	-0.288224	1.690703	0.240199	1.037486	-0.201825	1.527505	-0.132155	1.587041	-0.506176	2.128469	-1.065368	-7.963488
-0.163276	-1.975024	0.479359	1.280042	-0.621657	0.879033	-0.041066	0.210658	-1.110379	-0.0386949999999999	-1.810394	0.222614	-0.263376	2.359191	-0.714407	-8.045988
0.165023	-0.984344	1.810748	2.276795	-0.041277	2.066545	0.391107	1.118667	-0.25122	1.289795	-0.58627	1.290244	-0.568525	2.075778	-0.938657	-8.082421
-0.141854	-1.634425	0.932299	1.587165	-0.075227	1.963929	0.398289	1.006929	-0.175116	1.253617	-0.494361	1.386285	-1.582795	0.933925	-2.086482	-8.488671
0.135078	-0.705921	2.010779	2.544076	0.772513	3.572078	1.024694	2.381739	-0.90223	0.199689	-1.517748	0.459093	-1.990074	0.4167	-2.550156	-8.63275
-0.338505	-1.924207	0.370757	1.216552	0.111824	2.411637	0.572135	1.487592	-0.486746	0.746829	-0.800385	1.007373	-0.826993	1.62679	-1.428507	-8.39282
-0.205977	-1.818492	0.464221	1.338895	-0.151811	1.77695	0.399634	1.018722	-0.564345	0.745115	-0.935637	0.785821	-0.292383	2.249425	-0.908288	-8.321039
-0.391972	-2.208659	-0.036499	0.870032	-0.585484	0.830834	0.060524	0.21116	-1.083605	-0.147596	-1.880661	0.0329759999999999	-0.418098	2.088217	-0.97889	-8.284405
-0.218707	-2.098381	0.196604	0.960485	-0.330258	1.386462	0.249952	0.737864	-0.668816	0.792154	-0.924359	0.689806	-1.286118	1.111099	-1.940148	-8.571835
-0.668913	-2.850811	-0.923123	0.087809	-0.696775	0.575866	-0.119927	-0.078477	-0.850284	0.50773	-1.360765	0.388227	0.29339	2.736297	-0.446846	-8.344956
-0.32125	-2.23046	-0.020093	0.923611	-0.617676	0.85504	-0.09401	0.08569	-1.186944	-0.11241	-1.884399	0.038408	-0.891765	1.511272	-1.534626	-8.512659
-0.450402	-2.432899	-0.193768	0.829551	-0.285258	1.45698	0.098644	0.627889	-1.135643	-0.00588100000000003	-1.821375	0.151994	-0.706807	1.686351	-1.350323	-8.560664
-0.385699	-2.499124	-0.297785	0.688422	-0.176362	1.87477	0.284396	1.122829	-1.367844	-0.393097	-2.220031	-0.128292	-1.257325	1.078522	-1.745968	-8.416767
-0.456653	-2.582888	-0.272566	0.78557	-0.447076	1.352919	0.080179	0.741273	-1.520516	-0.614798	-2.374892	-0.326779	-1.155142	1.250516	-1.633974	-8.321039
-0.114333	-1.525764	0.905314	1.714653	-0.550919	0.966343	-0.065656	0.426104	-0.925917	0.25818	-1.320711	0.47034	-1.784301	0.577908	-2.277258	-8.344956
-0.44048	-2.114552	0.118779	1.105247	-0.713705	0.750499	-0.202657	0.082785	-0.695088	0.640949	-1.054816	0.786692	-1.775062	0.601326	-2.393895	-8.416767
-0.408239	-1.828994	0.34942	1.344343	-0.576651	0.918436	-0.156446	0.167122	-0.849601	0.441493	-1.350009	0.623477	-0.411048	2.067016	-1.272987	-8.260518
-0.457881	-2.140086	0.178406	1.111301	-0.856778	0.376732	-0.344875	-0.270418	-0.10385	1.608188	-0.016545	1.731867	-0.184929	2.254549	-1.16083	-8.177747
-0.28912	-1.934399	0.464221	1.412957	-0.296039	1.530184	0.152374	0.766929	-0.487915	0.942898	-0.932821	0.981356	-0.740475	1.666061	-1.590813	-8.153901
-0.304026	-1.700042	0.793194	1.600931	-0.611261	0.774998	-0.105012	0.135515	-0.154436	1.453626	-0.198305	1.518309	-0.597715	1.880907	-1.337406	-7.86852
-0.259295	-1.597456	0.968103	1.75184	-0.612784	0.8626	-0.076527	0.051165	-0.385196	0.985711	-0.566536	1.201969	-0.773671	1.659988	-1.554293	-7.773712
-0.280529	-1.568437	1.150542	1.675277	-0.194502	1.33152	0.181227	0.469499	-0.513589	0.905826	-0.75335	0.968173	-0.367851	2.060577	-1.253723	-7.691536
0.00243700000000002	-1.02643	1.74142	2.25065	0.095543	1.77695	0.429625	0.87468	-0.4887	0.835536	-0.841757	1.000429	-0.580489	1.780642	-1.463565	-7.821096
-0.0929359999999999	-1.230968	1.53492	2.05877	-0.032497	1.530184	0.278985	0.584274	-0.694867	0.5223	-1.233099	0.649735	-0.799603	1.518365	-1.646718	-7.892247
-0.347144	-1.537533	1.01026	1.642649	-0.467881	0.623537	-0.03849	-0.047345	-0.720624	0.479769	-1.295165	0.642009	-0.467243	1.861247	-1.239001	-7.80857
-0.0799530000000002	-1.100569	1.698612	2.091026	-0.024407	1.563997	0.288637	0.634317	-0.772331	0.351186	-1.526654	0.640671	0.166289	2.578873	-0.705211	-7.750035
-0.216684	-1.525764	1.08763	1.593999	-0.100758	1.290885	0.144375	0.43749	-0.643142	0.513901	-1.248674	0.798587	-0.440419	1.835039	-1.259113	-7.950901
0.00895099999999993	-0.895837	1.8816	2.210565	-0.203192	1.054704	-0.023537	0.270728	-0.078605	1.569095	-0.150802	1.57625	0.363495	2.635516	-0.63097	-7.761204
-0.395803	-1.639876	0.848466	1.447492	-0.194294	1.060459	0.095039	0.381733	-0.849485	0.439278	-1.465033	0.488042	0.105259	2.359191	-0.921638	-7.87969
-0.14637	-1.09752	1.468786	2.028804	-0.424633	0.783162	-0.125198	0.143937	-0.490766	1.035499	-0.710713	1.006913	-0.521784	1.733637	-1.252836	-7.950901
-0.485115	-1.713364	0.630881	1.410362	-0.518343	0.72728	-0.178007	0.139724	-0.952219	0.324449	-1.510964	0.514368	-0.643563	1.600776	-1.337406	-7.927155
-0.108179	-1.084315	1.560398	2.023412	-0.639426	0.694234	-0.24895	0.082785	-0.183376	1.493551	-0.140266	1.63779	-0.0544239999999998	2.295696	-0.749618	-7.927155
-0.562785	-1.842048	0.402649	1.191111	-0.534674	0.743796	-0.176461	0.187923	-0.59153	0.78212	-0.919122	1.105372	0.220505	2.59331	-0.506079	-7.80857
-0.292368	-1.198753	1.150145	1.805826	-0.776453	0.493674	-0.399638	-0.172686	-0.20862	1.454412	-0.169248	1.644972	-0.392981	1.88746	-1.17634	-8.058614
-0.488667	-1.610926	0.568712	1.412957	-0.41395	0.981485	-0.127385	0.436687	-1.079588	0.0253260000000001	-1.644304	0.452866	-0.736206	1.397711	-1.590813	-8.201604
-0.269016	-1.082698	1.233054	1.997593	-0.713705	0.489394	-0.402443	-0.135704	-0.643922	0.700852	-0.888782	0.867831	-0.952578	1.239864	-1.889935	-8.249348
-0.607202	-1.742297	0.394685	1.344343	-0.448254	0.981485	-0.112588	0.331054	-1.284024	-0.201372	-1.920144	0.13902	-0.547032	1.619837	-1.407486	-8.011031
-0.309531	-1.114037	1.191851	1.875403	-0.467373	0.981917	-0.140071	0.33434	-0.414455	1.228199	-0.477592	1.230798	-1.372672	0.838603	-1.961554	-8.034817
-0.557347	-1.739825	0.461062	1.236706	-0.991944	-0.012545	-0.552353	-0.65698	-0.746266	0.721069	-1.021375	0.781643	-1.75921	0.531909	-2.242174	-8.249348
-0.286145	-1.302795	1.05278	1.801567	-0.561117	0.735538	-0.298551	-0.038406	-1.235669	0.0436350000000001	-2.052725	0.0116120000000002	-2.517054	-0.292357	-3.019114	-8.356127
-0.25882	-1.539398	0.870384	1.679722	0.314074	2.500129	0.440818	1.553451	-0.338017	1.416907	-0.406549	1.206224	-1.351983	0.957868	-1.986213	-8.069784
-0.0807660000000001	-1.508565	0.919805	1.570997	-0.160257	1.557227	0.066557	0.783712	-1.079206	0.445959	-1.51505	0.321177	-1.076895	1.141913	-1.667334	-7.80857
-0.557347	-2.449211	-0.323498	0.622115	-0.928055	0.177593	-0.499723	-0.453189	-1.387784	-0.14145	-2.171217	-0.154528	-0.876878	1.441428	-1.413801	-7.501404
-0.0934809999999999	-1.288957	1.150118	1.762522	-0.245397	1.495931	0.020784	0.702132	-0.414222	1.416907	-0.467779	1.129335	-0.714862	1.62679	-1.135256	-7.524973
-0.50165	-2.214149	-0.098025	0.699304	-0.56926	0.894502	-0.227586	0.037137	-1.103866	0.296127	-1.685985	0.187293	-0.471249	1.941984	-0.819963	-7.59574
-0.129341	-1.229874	1.136211	1.730081	-0.287112	1.232586	-0.006178	0.542551	-0.976496	0.52443	-1.462724	0.347592	-1.699477	0.675525	-2.106488	-7.93973
-0.539868	-2.050029	-0.072113	0.820121	-0.684086	0.550403	-0.296328	-0.033083	-0.771276	0.957993	-0.878875	0.737391	-1.487523	0.869488	-1.871581	-7.93973
-0.237147	-1.81588	0.264075	1.160246	-0.632745	0.840281	-0.258618	0.256602	-1.052581	0.606872	-1.400452	0.36255	-0.925841	1.342838	-1.309243	-7.821096
-0.595642	-2.482458	-0.662331	0.316472	-0.896987	0.374219	-0.455778	-0.192178	-0.66946	1.225826	-0.814078	0.865504	-0.918337	1.368526	-1.421572	-7.821096
-0.0427289999999998	-1.173771	1.066416	1.836414	-0.261322	1.624895	0.016672	0.874726	-0.112313	1.957627	0.218627	1.617577	-1.213179	0.99769	-1.595365	-7.690231
-0.192812	-1.892362	0.057732	0.967007	-0.693958	0.776808	-0.268593	0.103052	-0.69502	0.954865	-0.947894	0.813745	-0.359991	1.980507	-0.823936	-7.548552
-0.057534	-1.510344	0.54938	1.423438	-0.381104	1.502789	-0.023714	0.676991	-0.899243	0.800879	-1.223108	0.537267	-0.94209	1.229746	-1.456093	-7.690231
0.0313670000000001	-1.350854	0.940271	1.719007	-0.270211	1.421686	-0.060053	0.652245	-0.771835	0.873752	-1.186675	0.645416	-0.526606	1.760652	-0.955099	-7.642965
0.0184660000000001	-0.896022	1.205598	1.991928	-0.109193	1.887249	0.054282	0.884686	-0.387794	1.530576	-0.531851	1.233027	-0.32143	2.088217	-0.780443	-7.619348
-0.315742	-1.512066	0.499026	1.381247	-0.00812600000000002	2.012177	0.123852	0.97462	-0.848281	0.802663	-1.281565	0.543143	-1.067673	1.324866	-1.427875	-7.548552
0.199775	-0.357144	2.004272	2.552222	0.118196	2.294174	0.249861	1.257847	-0.694817	1.041492	-0.876013	0.745183	-0.400892	2.047999	-0.693232	-7.207061
-0.245684	-1.291318	0.73091	1.536541	-0.202365	1.631586	0.046243	0.775727	-0.899243	0.768412	-1.327232	0.441342	-1.33248	0.981773	-1.517844	-7.336694
-0.167328	-0.881416	1.170892	1.883515	-0.552293	0.997491	-0.227586	0.204647	-0.643802	1.04928	-0.882987	0.784766	-1.598148	0.692315	-1.798108	-7.524973
-0.238735	-1.447203	0.389581	1.254322	-0.816273	0.403477	-0.558918	-0.49335	-0.567645	1.307609	-0.802941	0.910861	-1.78035	0.497237	-2.031241	-7.690231
-0.120887	-0.794312	1.171018	1.889715	-0.448814	1.305341	-0.23417	0.314858	-1.305668	0.120774	-1.986177	-0.0517590000000001	-2.349234	-0.172599	-2.547667	-7.797399
-0.349038	-1.493186	0.245897	1.279195	-0.735531	0.832126	-0.449398	-0.222537	-1.561436	-0.307467	-2.448849	-0.375878	-2.042821	0.228749	-2.27032	-7.855974
-0.192306	-0.866674	1.136211	2.028804	-0.336464	1.63828	-0.199658	0.40145	-1.433466	-0.119651	-2.324106	-0.19026	-1.834443	0.456952	-2.085756	-7.892247
-0.131262	-0.649864	1.503542	2.290586	0.042439	2.171456	0.106648	1.051813	-1.226199	0.16389	-1.98271	-0.00381100000000001	-2.37422	-0.0219689999999999	-2.579194	-8.045988
-0.15664	-0.461941	1.601644	2.363266	-0.067025	2.112424	0.075831	1.045727	-0.998824	0.581745	-1.436022	0.429916	-1.200929	1.217338	-1.484406	-7.927155
-0.192306	-0.952889	0.894141	1.842617	-0.438362	1.225165	-0.186526	0.35424	-1.534431	-0.232428	-2.307191	-0.217053	-1.900776	0.641882	-1.941519	-8.117408
-0.259617	-0.937722	0.847421	1.848919	-0.759088	0.776808	-0.487283	-0.236931	-1.000306	0.533067	-1.50495	0.581148	-1.43725	1.12089	-1.766484	-8.225471
-0.279075	-0.90949	0.817783	1.918262	-0.876289	0.682627	-0.502035	-0.307378	-0.745842	0.956422	-1.052153	0.948748	-1.266918	1.265405	-1.681801	-8.297132
-0.299969	-0.894478	0.721971	1.810127	-0.903397	0.713007	-0.565254	-0.322057	-1.206051	0.334102	-1.7723	0.353321	-0.992362	1.578094	-1.358315	-8.225471
-0.285248	-0.607479	1.260776	2.144592	-0.716636	1.075851	-0.436592	-0.0204839999999999	-0.541995	1.341383	-0.656462	1.187276	-2.344779	0.00653400000000026	-2.699042	-8.141235
-0.227886	-0.450296	1.274393	2.074648	-0.792603	0.840281	-0.510438	-0.232136	-0.49136	1.384483	-0.567606	1.154325	-1.312999	1.021759	-1.788906	-7.642965
-0.122818	-0.60712	1.253963	1.997593	-0.599149	1.240009	-0.276843	0.103052	-1.104706	0.298627	-1.665175	0.353321	-1.727566	0.500609	-2.178778	-7.548552
-0.288998	-0.621695	1.122598	1.814472	-0.277835	1.644978	-0.148792	0.366239	-0.899914	0.646906	-1.312497	0.722079	-1.044635	1.292336	-1.57869	-7.289722
-0.350207	-0.851642	0.748842	1.627145	-0.277835	1.544007	-0.125856	0.475805	-1.001997	0.417142	-1.591881	0.566904	-0.639512	1.700173	-1.171117	-7.289722
-0.344101	-0.693507	0.948737	1.771264	-0.117449	1.946818	-0.004805	0.842751	-1.256853	0.034042	-2.090391	0.160771	-0.976245	1.335472	-1.532066	-7.454295
-0.493617	-1.500914	0.040031	0.976847	-0.159738	1.833709	-0.096304	0.793862	-0.745842	1.036977	-1.033852	1.026122	-0.912481	1.511272	-1.399751	-7.501404
-0.341619	-1.428367	0.143776	1.050123	-0.142568	1.959159	-0.003418	0.846123	-1.026412	0.533067	-1.491044	0.645416	-1.979046	0.305158	-2.48177	-7.80857
-0.370973	-1.254908	0.367968	1.236706	-0.40577	1.312573	-0.278573	0.298739	-0.822103	0.764687	-1.259071	0.858398	-1.024254	1.397711	-1.572782	-7.619348
-0.295126	-0.951745	0.768355	1.544026	-0.517725	1.077494	-0.357945	0.127113	-0.924438	0.761013	-1.445822	0.760611	-0.976245	1.442301	-1.644516	-7.784882
-0.326934	-0.951745	0.691687	1.61747	-0.465727	1.188082	-0.27373	0.282701	-0.440209	1.455214	-0.759638	1.369715	-0.521784	2.038498	-1.135256	-7.726366
-0.291408	-0.750945	0.8795	1.766871	-0.567826	1.22853	-0.328257	0.162976	-0.313683	1.764578	-0.445755	1.594418	-0.685724	1.815387	-1.351375	-7.87969
-0.401899	-1.15506	0.472085	1.455138	-0.389347	1.434321	-0.154941	0.537564	-0.415106	1.648791	-0.724322	1.355856	-0.307783	2.207818	-0.94695	-7.737537
-0.144097	-1.227514	0.514649	1.494639	-0.653147	0.981917	-0.3746	-0.060723	-0.31453	1.575093	-0.707958	1.411572	-0.580489	1.903493	-1.281437	-7.821096
-0.30477	-1.228723	0.456351	1.415563	-0.134832	1.88548	0.048	0.835507	-0.593155	1.19146	-1.012794	1.051837	-1.216644	1.184328	-1.827422	-7.821096
-0.337981	-0.937722	0.65713	1.580734	-0.185749	1.59151	-0.049402	0.620085	-0.517014	1.267382	-0.740434	1.289484	-1.089863	1.284848	-1.739779	-7.773712
-0.496304	-1.152842	0.407944	1.284957	-0.15153	1.672286	-0.091117	0.492074	-0.669432	0.954865	-1.088653	1.071335	-0.825418	1.575053	-1.544256	-7.750035
-0.203075	-0.636416	1.115587	1.885571	-0.235604	1.591121	-0.111082	0.471949	-0.873337	0.722947	-1.320711	0.890629	-0.659397	1.754722	-1.281545	-7.655423
-0.319531	-0.79417	0.822778	1.691025	-0.412269	1.301789	-0.252114	0.291787	-1.488814	-0.179486	-2.463732	-0.025989	-1.512443	0.877599	-2.070711	-7.86852
0.13406	0.0225220000000002	2.021542	2.666304	0.184987	2.677552	0.294196	1.600736	-0.542094	1.339401	-0.604944	1.413798	-1.557247	0.837513	-2.055692	-7.773712
-0.249594	-0.996363	0.653721	1.457707	-0.320098	1.678884	-0.050514	0.751541	-1.181128	0.245541	-1.891982	0.499971	-1.54704	0.877599	-1.803525	-7.797399
0.011574	-0.235215	1.655336	2.216694	-0.627371	1.085093	-0.309915	0.282701	-1.464916	-0.0358270000000001	-2.268919	0.039045	-1.932164	0.683923	-2.01627	-7.998424
-0.154421	-0.966995	0.607229	1.539026	-0.270211	1.693756	-0.105931	0.734461	-0.592897	1.374172	-0.765104	1.234548	-0.534777	2.126194	-0.736526	-7.927155
0.198377	-0.221485	1.633199	2.331796	-0.219027	1.808425	-0.089651	0.81602	-1.131059	0.590849	-1.728459	0.497668	-1.942223	0.706514	-2.086482	-8.249348
0.0390509999999999	-0.578735	1.17781	1.991928	-0.092268	2.171456	0.061035	1.119887	-1.051805	0.604826	-1.536117	0.572907	-1.417029	1.283863	-1.590813	-8.225471
0.278661	0.0513860000000002	1.951856	2.703292	0.554708	3.554386	0.636378	2.289237	-0.823073	1.063966	-1.073317	0.961621	-1.648369	0.950535	-1.936231	-8.260518
-0.243378	-1.141179	0.54938	1.534064	-0.338177	1.856096	-0.010221	0.705595	-0.976199	0.757389	-1.314185	0.695956	-1.237016	1.401747	-1.428507	-8.117408
0.142342	-0.233874	1.642814	2.439934	0.305897	3.042219	0.424504	1.694748	-0.952444	0.783759	-1.303983	0.80501	-0.340806	2.382804	-0.643909	-7.974658
-0.141911	-0.952346	0.649498	1.654233	-0.067025	2.165771	0.125915	0.974606	-1.25912	0.207324	-1.871391	0.311877	-1.573237	0.983294	-1.845625	-8.212775
0.196645	-0.150303	1.771971	2.480563	0.210822	2.772473	0.375162	1.496652	-1.515825	-0.182624	-2.390769	-0.0528279999999999	-1.457408	1.070746	-1.687848	-8.011031
-0.287633	-1.125303	0.530249	1.539026	-0.244169	1.833709	0.083852	0.807489	-1.486423	-0.0125299999999999	-2.235842	0.011493	-2.347639	-0.0410150000000002	-2.572803	-8.188918
-0.0386829999999998	-0.966995	0.788072	1.688743	-0.599992	1.319807	-0.171747	0.322947	-1.716879	-0.482698	-2.783287	-0.405722	-1.602695	0.917716	-1.862252	-7.93973
-0.351491	-1.518261	0.049294	1.074369	-0.058544	2.399157	0.141899	1.22955	-0.822457	0.990037	-1.229431	0.942131	-1.577682	0.94989	-1.792566	-7.987254
-0.085046	-0.635932	1.198726	2.025198	-0.669144	1.235847	-0.369111	0.306789	-1.049307	0.694785	-1.342909	0.685463	-1.648369	0.84513	-1.82188	-8.058614
-0.448707	-1.531616	-0.1153	1.040618	-1.047988	0.562766	-0.657794	-0.372724	-1.278469	0.30366	-1.889598	0.304191	-2.325777	0.046519	-2.459449	-8.130064
0.073097	-0.434756	1.38612	2.175005	-0.428418	1.87477	-0.166921	0.919897	-1.12645	0.688825	-1.3595	0.729689	-2.499697	-0.0238699999999998	-2.648481	-8.117408
-0.000771999999999995	-0.881008	0.877681	1.679722	-0.360303	2.135549	-0.082132	1.146645	-1.529052	0.048755	-1.966595	0.0965229999999999	-3.245666	-0.833177	-3.351278	-8.212775
0.296624	-0.0621830000000001	1.945999	2.626397	-0.343046	2.047075	-0.072492	1.120743	-1.734641	-0.344942	-2.477291	-0.217053	-1.802333	0.660617	-1.971511	-7.773712
-0.280451	-1.053936	0.495643	1.497161	-0.784806	1.060459	-0.504219	0.26076	-1.551254	-0.091002	-2.158224	-0.00895200000000007	-2.135048	0.381389	-2.301049	-7.86852
-0.0472240000000002	-0.808625	0.837543	1.725619	-0.360855	1.934501	-0.209341	0.856277	-1.326745	0.241502	-1.694552	0.398067	-1.175708	1.387275	-1.484406	-7.784882
-0.423606	-1.719113	-0.365539	0.816632	-0.790211	1.083547	-0.546111	0.164144	-1.329569	0.306192	-1.901055	0.426605	-1.312999	1.222182	-1.566748	-7.80857
-0.167686	-0.821985	0.840018	1.734584	-0.469177	1.584334	-0.230481	0.817777	-0.972456	0.997523	-1.318746	0.878886	-0.0864670000000001	2.503347	-0.518828	-8.225471
0.00531100000000007	-1.121976	0.426505	1.310261	-0.302006	1.91607	-0.098364	1.096337	-0.66873	1.572268	-0.853045	1.192286	-0.971738	1.611756	-1.288021	-8.729008
0.211337	-0.481512	1.260462	1.889715	-0.86727	0.85504	-0.481149	0.169308	-0.290502	2.071567	-0.229661	1.709707	-1.317138	1.184328	-1.50613	-8.825428
0.063178	-0.721741	1.05278	1.801567	-0.227048	1.903815	-0.040977	1.013245	0.085842	2.644417	0.477779	2.221763	-1.79339	0.724174	-1.886352	-8.873701
0.148169	-0.171608	1.667854	2.258185	-0.405254	1.645943	-0.05862	0.71602	-0.390275	1.801346	-0.348054	1.573048	-1.432488	1.029653	-1.693767	-8.656799
-0.0220610000000001	-0.622487	1.073452	1.877414	0.084925	2.447112	0.254727	1.377387	-0.516193	1.52694	-0.576288	1.448951	-0.216798	2.278047	-0.666181	-8.488671
0.295009	0.0702880000000001	1.992759	2.70154	0.536924	3.217172	0.622044	2.011429	-0.439134	1.800273	-0.297357	1.605195	-0.338805	2.081997	-0.841852	-8.416767
0.105556	-0.494113	1.403553	2.171877	0.278391	2.767852	0.449326	1.610087	-0.618396	1.412753	-0.721436	1.214123	0.028359	2.549287	-0.675345	-8.177747
0.363321	0.040133	2.09133	2.706025	-0.49077	1.177913	-0.114082	0.190568	-0.720765	1.136271	-1.056859	1.105372	0.392377	2.958401	-0.281498	-7.797399
0.09918	-0.252547	1.598943	2.289148	-0.083934	1.833709	0.179534	0.747636	-1.027828	0.675346	-1.553299	0.591074	0.0325039999999999	2.492248	-0.688346	-7.950901
0.309658	0.0435989999999999	2.13345	2.703292	0.068018	2.053066	0.286315	0.908155	-1.102101	0.60893	-1.623005	0.464491	-1.042582	1.189661	-1.679297	-8.106238
0.040594	-0.636671	1.282963	1.993805	-0.160159	1.631586	0.052998	0.600183	-0.871033	1.080732	-1.055027	0.898439	-1.588475	0.641882	-2.292644	-8.416767
0.228266	-0.156899	1.794609	2.372813	-0.355878	1.407587	-0.076298	0.362235	-0.69439	1.382473	-0.743185	1.167425	-0.924177	1.452343	-1.462631	-8.058614
0.190781	-0.494553	1.353003	2.028804	-0.424168	1.345783	-0.166711	0.389605	-0.970471	0.854916	-1.271627	0.80283	-1.628903	0.6503	-2.246567	-8.153901
0.322762	0.0667949999999999	1.90014	2.450207	-0.987948	-0.02155	-0.656078	-0.644538	-1.148456	0.655018	-1.718631	0.435616	-1.322737	1.021759	-1.705222	-7.797399
-0.0617599999999998	-0.42364	1.143188	1.916284	-0.708772	0.559105	-0.458099	-0.188859	-1.634199	-0.132162	-2.62005	-0.169982	-1.573018	0.724174	-2.120461	-7.86852
0.210826	0.151765	1.894184	2.523427	-0.420958	1.200456	-0.263347	0.429262	-1.29952	0.429026	-1.9147	0.328882	-1.74988	0.488553	-2.170312	-7.892247
-0.0887550000000001	-0.821066	0.622599	1.588142	-0.650466	0.879239	-0.453779	0.124844	-1.095599	0.744413	-1.586384	0.479861	-1.944198	0.453756	-2.421097	-7.93973
0.011293	-0.396889	1.150606	1.823286	-0.97745	0.329201	-0.670848	-0.307378	-1.270958	0.520514	-1.773291	0.34281	-2.534218	-0.231399	-2.835156	-7.974658
-0.15776	-0.636648	0.788072	1.619874	-0.421543	1.341522	-0.311056	0.499048	-1.403599	0.271084	-1.978345	0.244587	-1.697376	0.5977	-2.049685	-7.631795
-0.109489	-0.537367	0.970395	1.814472	-0.60966	1.060459	-0.457767	0.186308	-1.576216	-0.057032	-2.249554	-0.0557099999999999	-2.191044	0.0584340000000001	-2.566454	-7.71388
-0.124044	-0.551451	0.77583	1.661308	-0.346005	1.483001	-0.275102	0.495162	-1.35259	0.273695	-1.958159	0.30818	-1.945502	0.314161	-2.45376	-7.524973
-0.0073169999999998	-0.594179	0.793856	1.639459	-0.846548	0.383209	-0.651571	-0.34268	-1.763051	-0.351916	-2.615551	-0.243886	-1.681667	0.544103	-1.994325	-7.231618
-0.178472	-0.849945	0.503484	1.470695	-0.396036	1.544007	-0.275102	0.468084	-1.581063	-0.222431	-2.383475	0.0647789999999999	-1.873718	0.380949	-2.205796	-7.336694
0.00919999999999987	-0.297582	1.164063	2.039901	-0.542115	1.217745	-0.400568	0.229865	-1.426256	0.05769	-2.210167	0.0439319999999999	-1.911617	0.206792	-2.26677	-7.443125
-0.0409079999999999	-0.508592	0.850168	1.766871	0.042756	2.330449	0.036905	1.009577	-1.301628	0.358991	-1.918569	0.207414	-1.920437	0.234224	-2.270468	-7.383705
-0.140888	-0.978806	0.479943	1.428735	0.043401	2.457342	0.072144	1.105435	-1.175849	0.546369	-1.73334	0.340007	-1.472368	0.869488	-1.833684	-7.125624
0.235387	-1.00000000000655E-05	1.771971	2.446256	0.169951	2.577823	0.164705	1.123826	-1.071114	0.715415	-1.470294	0.448283	-1.115943	1.229746	-1.425079	-6.705829
-0.199138	-0.836438	0.618916	1.578285	-0.245397	1.713224	-0.174903	0.456273	-1.071623	0.673952	-1.556296	0.427845	-2.206894	0.00472300000000003	-2.197956	-6.682598
0.0632550000000001	-0.23882	1.462272	2.294977	-0.364922	1.645943	-0.23582	0.409372	-1.097721	0.781831	-1.573978	0.508256	-1.386925	1.01386	-1.513323	-6.624129
0.0860889999999999	-0.565293	1.115288	1.879437	-0.160388	1.897697	-0.099258	0.698286	-0.466898	1.80522	-0.59975	1.372532	-0.635188	1.814308	-0.748508	-6.566585
0.326129	-0.139543	1.759754	2.368644	-0.27075	1.611528	-0.179936	0.522487	-1.427082	0.391463	-2.291581	0.0541119999999999	-2.36686	-0.0219689999999999	-2.39171	-7.032067
-0.102684	-1.235569	0.125897	1.129665	0.034788	2.250098	0.030146	1.060998	-0.567825	1.767816	-0.75915	1.218508	-0.976245	1.578094	-1.020665	-7.032067
0.239015	-0.182956	1.516465	2.256653	-0.422653	1.455165	-0.268593	0.479666	-1.275828	0.615174	-2.014232	0.309829	-2.347639	0.160915	-2.366261	-7.619348
-0.133982	-1.107176	0.194936	1.160246	-1.19107	0.0832280000000001	-0.842639	-0.711401	-1.324559	0.657075	-2.074541	0.208266	-1.217945	1.463794	-1.19896	-7.477844
0.222669	-0.0703960000000001	1.405961	2.218258	-0.91245	0.657316	-0.619883	-0.217733	-1.40041	0.54189	-2.098559	0.117914	-2.109301	0.4167	-2.049685	-7.666594
0.119131	-0.665104	0.649498	1.575845	-0.56306	1.294455	-0.330363	0.355488	-1.701938	0.086172	-2.637652	-0.290441	-1.667228	1.030427	-1.515825	-7.548552
0.532806	0.327155	1.980879	2.70154	-0.218499	2.02318	-0.078561	0.996762	-0.994628	1.046126	-1.507644	0.592058	-2.048378	0.494415	-1.971511	-7.761204
0.125406	-0.508592	0.753391	1.686472	0.000363999999999975	2.4148	0.114646	1.393122	-0.744595	1.420509	-0.985603	1.077516	-1.547876	1.080232	-1.636034	-7.690231
0.332555	-0.041922	1.364669	2.216694	-0.261005	2.011272	-0.073399	1.064075	-0.921722	1.074923	-1.391198	0.775502	-1.723601	0.796582	-1.725258	-7.690231
0.139937	-0.565757	0.58036	1.578285	-0.515752	1.687276	-0.263777	0.86812	-0.719387	1.421446	-0.985603	1.000562	-1.46738	1.143841	-1.656219	-7.619348
0.164612	-0.806661	0.33915	1.360906	-0.920152	0.776808	-0.605168	0.015533	-1.452979	0.19587	-2.150645	0.00653999999999999	-1.022037	1.639321	-1.04765	-7.219337
0.222669	-0.964186	0.290568	1.236706	-0.420958	1.780035	-0.206201	0.747636	-1.250061	0.506531	-1.798295	0.392433	-1.337353	1.182032	-1.308543	-7.008703
0.416551	-0.42364	1.157046	1.918262	-0.125778	2.194269	-0.054244	1.085812	-1.756334	-0.297122	-2.765448	-0.385425	-1.602695	0.925756	-1.555942	-7.161291
0.259884	-0.267344	1.184974	1.953159	0.075968	2.483089	0.117098	1.444168	-1.221075	0.441177	-1.867617	0.370139	-1.804046	0.772718	-1.81399	-7.477844
0.274409	-0.184122	1.253963	1.997593	-0.050146	2.356549	-0.050514	1.243599	-0.892711	0.901494	-1.296294	0.887385	-1.422377	1.159126	-1.323205	-7.619348
0.220839	-0.551661	0.921379	1.622288	-0.277469	1.786457	-0.189815	0.821219	-1.347265	0.396408	-1.990788	0.349535	-1.563087	1.031816	-1.546314	-7.784882
0.318012	-0.410276	1.039435	1.773476	-0.589468	1.287123	-0.422368	0.308243	-1.476294	0.15553	-2.346643	0.17089	-1.79339	0.804778	-1.759742	-7.619348
0.00507499999999994	-0.864419	0.402649	1.27347	-0.545497	1.269712	-0.328496	0.363668	-1.911184	-0.55072	-3.033688	-0.378649	-1.287211	1.361225	-1.426728	-7.383705
0.106624	-0.480537	1.08751	1.766871	-0.268503	1.946818	-0.083661	0.894706	-1.251355	0.417142	-1.837464	0.651472	-0.84752	1.914571	-0.911895	-7.10222
0.121114	-0.125958	1.372879	2.100944	-0.285669	1.692092	-0.10649	0.856277	-1.196751	0.319008	-1.899222	0.519786	-0.992362	1.659238	-1.212702	-7.278552
0.11688	-0.228139	1.102224	1.926284	-0.658403	1.068155	-0.409605	0.182051	-0.744046	1.195347	-0.997698	1.211912	-1.442211	1.202308	-1.705222	-7.572141
-0.0363290000000001	-0.438616	0.77583	1.769062	-0.302446	1.881008	-0.093299	0.993576	-0.769162	1.119898	-1.097011	1.090226	-0.996895	1.652415	-1.205699	-7.572141
0.0611069999999998	-0.763581	0.466145	1.512498	-0.819536	0.997491	-0.405117	0.381733	-0.795194	0.999061	-1.236504	1.084004	-1.117815	1.530544	-1.323205	-7.59574
