fnirSoft:	Exported Text File
Version:	4.2
ExportDate:	12/18/2023 12:22:16 PM
VariableInfo
Name:	oxygraph48.oxy.Block1
Size:	2000 x 16
Type:	Numeric
Content:	Hemoglobin
Date:	12/18/2023 12:22:06 PM
Notes:	Oxygenation (difference Hb) concentration changes data saved by Oxygraph from file C:\Users\Anette Johansson\Documents\COBI Studio Data\LRV patienter\0049P group 1\ANETTE_0049P_1_11101451.oxy
Labels:	OXY	DATA
VariableData
Hemoglobin	Hemoglobin	Hemoglobin	Hemoglobin	Hemoglobin	Hemoglobin	Hemoglobin	Hemoglobin	Hemoglobin	Hemoglobin	Hemoglobin	Hemoglobin	Hemoglobin	Hemoglobin	Hemoglobin	Hemoglobin
Optode1	Optode2	Optode3	Optode4	Optode5	Optode6	Optode7	Optode8	Optode9	Optode10	Optode11	Optode12	Optode13	Optode14	Optode15	Optode16
1.187019	1.03887	0.706253	0.272167	-0.36302	0.325558	0.307628	0.16072	0.317517	0.464386	0.00714700000000001	0.23606	-0.0739179999999999	0.177686	0.00534800000000002	0.302148
0.74765	0.368208	0.185642	-0.085951	-0.684445	-0.088244	-0.186494	-0.277475	0.62723	0.856253	0.596752	0.692117	0.591315	0.563301	0.429902	0.764813
0.62884	0.58414	0.017377	-0.180121	-0.347357	-0.047774	0.05416	-0.193122	0.48718	0.621849	0.351021	0.444359	-0.046244	0.12222	-0.073763	0.418673
-0.065644	-0.00069600000000003	-0.340267	-0.309551	-0.603834	-0.305191	-0.233043	-0.371181	0.403474	0.616438	0.317371	0.522002	-0.817014	-0.426174	-0.707838	-0.068858
-0.6143	-0.159063	-0.518696	-0.367297	-0.719723	-0.314128	-0.227333	-0.353496	0.48922	0.558899	0.311308	0.473656	0.029656	0.191214	-0.064372	0.458111
-0.0562900000000001	0.251051	-0.241568	-0.084844	-0.816773	-0.224445	-0.21359	-0.327756	0.710798	0.697322	0.453819	0.54751	-0.722848	-0.400726	-0.622406	-0.025548
0.078924	0.581532	-0.104669	0.140256	-1.133009	-0.337272	-0.384503	-0.426357	0.656336	0.561528	0.371431	0.521131	-0.169336	-0.049302	-0.174693	0.316302
-0.057266	0.420694	-0.246344	-0.028423	-1.471775	-0.674298	-0.877114	-0.822099	0.026713	-0.035374	-0.528816	-0.223093	0.113594	0.226441	0.256532	0.594458
-0.124697	-0.096769	-0.234541	-0.188474	-1.674305	-0.819487	-0.944729	-0.844153	0.232291	0.141299	-0.317732	0.035645	-0.01434	-0.00917200000000007	0.037265	0.382568
-0.554464	-0.879002	-0.555985	-0.639324	-1.268185	-0.39209	-0.602351	-0.640875	0.547159	0.467845	0.35763	0.489254	0.218512	0.0435019999999999	0.162561	0.479047
-0.184165	-0.349578	-0.208354	-0.190443	-1.225052	-0.332488	-0.457903	-0.592314	-0.133823	-0.225459	-0.507947	-0.31376	0.131174	0.077051	0.0949220000000001	0.504152
-0.876244	-1.100172	-0.928962	-0.495842	-1.427386	-0.427285	-0.524722	-0.684591	0.203135	0.144221	-0.0342980000000002	0.061348	-0.727382	-0.545076	-0.594003	-0.101863
-0.290559	-0.576132	-0.518769	-0.0775960000000001	-1.741116	-0.773293	-0.98137	-1.116159	0.015115	0.0059140000000002	-0.153368	-0.103988	-0.64977	-0.592659	-0.416906	-0.046586
-0.731086	-1.124367	-0.748818	-0.385558	-1.383188	-0.424986	-0.432334	-0.603057	-0.131024	-0.205054	-0.515775	-0.400049	-0.958776	-0.873734	-0.700446	-0.344709
-0.332567	-0.938876	-0.34376	-0.215068	-1.248837	-0.258478	-0.227384	-0.38835	-0.298845	-0.364984	-0.726391	-0.594142	-0.560221	-0.488049	-0.316225	0.0501470000000002
-0.362946	-1.261928	-0.218502	-0.208479	-1.629271	-0.647758	-0.725651	-0.79189	-0.357916	-0.361242	-0.694599	-0.619975	-0.707498	-0.680563	-0.415565	-0.0399829999999999
0.9132	0.011661	0.625731	0.393167	-1.539622	-0.543405	-0.69945	-0.716382	0.001803	0.101492	-0.00422400000000001	-0.056387	-1.041699	-0.867786	-0.655526	-0.314408
1.015223	0.050586	0.515447	0.178666	-1.516719	-0.49038	-0.783145	-0.782341	-0.23068	-0.0995970000000002	-0.515073	-0.405719	-0.718385	-0.703502	-0.49041	-0.242859
1.423466	0.568674	0.705859	0.42903	-1.6743	-0.763093	-1.053124	-1.039381	0.210258	0.317476	0.0462699999999999	0.107742	-0.957537	-0.815075	-0.541059	-0.174712
1.139646	0.330623	0.385177	0.235798	-0.991217	-0.190499	-0.535057	-0.526038	-0.0245569999999999	0.191588	-0.196827	-0.121751	-1.210602	-0.957277	-0.897594	-0.436014
0.682581	0.484423	0.169197	0.171708	-0.413302	0.16869	-0.275209	-0.280007	0.376282	0.548535	0.114082	0.309629	0.0372119999999999	0.068835	0.230296	0.632859
0.216873	-0.346319	0.058215	-0.22587	-0.0917	0.177657	-0.275209	-0.239286	0.255107	0.531872	-0.173317	0.105962	-0.318761	-0.106645	-0.206125	0.295001
0.294307	-0.663496	0.324097	0.108921	0.188329	0.477585	-0.048827	-0.364208	0.415701	0.364174	0.376895	0.324407	-0.356895	-0.0319309999999999	-0.23613	0.367579
0.836519	-0.416875	0.799463	0.599497	0.365347	0.581279	0.14585	-0.516919	0.376004	0.218007	0.327107	0.263006	-0.299993	0.0472440000000001	-0.362695	0.51817
0.526029	-0.889197	0.512687	0.550426	0.299192	0.637385	0.535038	-0.585715	0.725074	0.438701	0.754105	0.496494	-0.129531	-0.00741300000000011	-0.322326	0.493686
0.565465	-0.956137	0.43906	0.501086	-0.088685	0.443028	0.314058	-0.59571	0.609606	0.149513	0.423857	0.239312	0.232372	0.338676	0.053509	0.813039
0.577287	-0.828335	0.460206	0.538223	-0.561417	-0.023584	-0.180352	-0.888993	0.816869	0.394037	0.699304	0.476014	0.573507	0.479169	0.277779	0.886642
0.692081	-0.859484	0.566983	0.559663	-0.368571	0.145404	0.049434	-0.638065	0.675759	0.225895	0.424401	0.297349	0.138629	0.332767	0.017458	0.726877
1.352754	-0.031604	0.987471	0.969166	-0.767887	0.008934	-0.071957	-0.775879	0.877198	0.595725	0.877846	0.629271	-0.038306	0.210603	0.020526	0.691576
0.51825	-0.897461	0.331053	0.398522	-0.654361	0.294707	0.200364	-0.434926	0.80172	0.649692	0.863325	0.657533	0.37888	0.5715	0.295229	0.881013
1.547736	0.500745	0.943095	1.058588	-0.591592	0.38422	0.279797	-0.298553	0.471037	0.351453	0.521518	0.380961	0.273248	0.423872	0.310125	0.795318
0.287491	-0.773655	-0.00841500000000001	0.357117	-0.641421	0.515372	0.543692	-0.111458	0.247348	0.0921	0.151717	0.05248	0.86039	0.859651	0.714596	1.072715
1.481804	0.553057	0.889891	1.02808	-0.850064	0.279238	0.213999	-0.316568	-0.153329	-0.279111	-0.485256	-0.383332	1.73581	1.372932	1.364683	1.438851
0.610065	-1.028222	0.436593	0.604127	-0.529386	0.440944	0.335779	-0.382551	0.146727	0.041774	-0.054089	-0.058925	0.900494	0.782691	0.579635	0.902672
1.685471	-0.288169	1.455518	1.216569	-0.819847	0.307502	0.263933	-0.717464	0.793695	0.842695	0.865194	0.782395	0.658858	0.791506	0.501702	0.939009
1.349789	-0.45177	1.075667	0.915183	-0.193104	0.896989	0.771388	0.047381	0.298045	0.241305	-0.029299	0.163011	0.982747	1.169093	0.870354	1.221664
1.819436	0.127727	1.532688	1.132654	-0.378721	0.585791	0.545159	-0.036463	0.606174	0.523301	0.324547	0.470302	0.894198	1.200691	0.912525	1.250022
1.163596	-0.732643	1.341637	0.757158	-0.424485	0.561626	0.582635	0.00172	0.835879	0.748313	0.666338	0.80536	-0.048996	0.418994	0.110428	0.44139
2.384775	0.538974	2.072575	1.454502	-1.079411	-0.119881	-0.131335	-0.707587	0.900709	0.769559	0.82505	0.885002	1.204246	1.34238	1.28132	1.411125
1.119551	-0.607149	0.956369	0.502999	-1.013879	-0.169779	-0.143462	-0.826086	0.905064	0.706891	0.824349	0.811361	0.820219	1.021675	1.006364	1.12552
1.531003	0.122991	1.027456	0.74962	-0.523763	0.163998	0.189814	-0.556547	0.708652	0.450836	0.478522	0.586864	-0.3864	0.083929	-0.098218	0.242652
0.644066	-0.657786	0.068394	0.125783	0.164322	0.507727	0.707508	-0.041382	0.374207	0.051809	0.015226	0.189751	-0.257957	0.186239	-0.098218	0.288937
0.671374	-0.564684	-0.122214	0.184669	0.128978	0.361496	0.627027	-0.162012	1.1094	0.853846	1.044511	0.968162	-0.163369	0.288256	-0.00354399999999999	0.442437
0.027121	-1.059846	-0.737365	-0.125992	-0.205267	0.217262	0.353128	-0.357045	0.796886	0.537536	0.568513	0.617657	0.494437	0.732646	0.515729	0.912198
0.989321	0.26204	-0.020701	0.542702	-0.646052	0.016796	0.0664399999999998	-0.581744	1.445516	1.240872	1.534484	1.392498	0.87559	1.105956	0.872911	1.211249
0.76828	-0.202379	-0.231371	0.40277	-1.321515	-0.23458	-0.254597	-0.715723	1.35991	1.150478	1.294554	1.191635	1.143321	1.29866	1.172928	1.464541
1.144745	0.322021	0.172568	0.774288	-1.207478	0.074538	0.0360319999999998	-0.475057	1.364982	1.180867	1.359352	1.217004	0.555277	0.836176	0.616684	0.898211
0.936651	-0.119672	-0.147411	0.462774	-1.486894	0.00110700000000008	-0.211647	-0.556547	0.555402	0.393423	0.280557	0.36437	0.367396	0.674685	0.357947	0.730618
1.105877	-0.089116	-0.057903	0.498814	-1.004596	0.518858	0.412511	-0.016215	0.555402	0.463252	0.27338	0.438907	0.582129	0.752695	0.465774	0.820852
0.402502	-0.920443	-0.515607	0.201003	-1.488203	0.154524	0.029763	-0.393599	0.647053	0.571893	0.453159	0.618409	1.667727	1.517113	1.370647	1.665862
1.391309	-0.045951	0.124942	0.719721	-1.303785	0.226639	0.270468	-0.163258	0.55923	0.551228	0.302049	0.443436	0.613507	0.747818	0.410263	0.834436
0.793249	-0.857093	-0.155289	0.415382	-1.486894	-0.00738500000000009	-0.0692299999999999	-0.429626	0.705397	0.625979	0.501603	0.572987	0.135725	0.24831	-0.029534	0.328173
1.223181	-0.461973	0.308901	0.592323	-1.579157	-0.112257	-0.0444120000000001	-0.406955	0.698273	0.672971	0.405213	0.522002	-0.214444	0.05439	-0.144018	0.183215
0.988737	-1.111049	0.229888	0.326071	-2.112516	-0.637637	-0.707223	-0.993694	0.555402	0.533775	0.281587	0.396925	0.038102	0.274752	0.206349	0.48341
1.690487	-0.544341	0.88077	0.600308	-2.043137	-0.63022	-0.570277	-0.930462	0.437519	0.360128	-0.0168700000000001	0.21789	-0.361492	-0.026103	-0.117569	0.25051
1.274017	-0.925759	0.46133	0.236924	-1.343347	-0.071998	0.115809	-0.365696	0.525993	0.405605	0.156263	0.34561	0.342237	0.491416	0.391745	0.820553
1.349697	-0.451792	0.433279	0.47183	-1.294616	-0.266257	-0.13046	-0.637139	0.492633	0.353979	0.0712260000000001	0.367298	0.510571	0.732646	0.474559	0.952016
0.683232	-0.791739	-0.242784	0.162581	-0.738166	0.178596	0.109532	-0.284959	0.549699	0.378288	0.224011	0.443436	0.214943	0.439669	0.102063	0.692283
0.518892	-0.874446	-0.50058	0.192169	-1.183483	0.008934	-0.099558	-0.543489	0.636095	0.375236	0.410286	0.469079	1.150246	1.222996	0.930122	1.431414
-0.015314	-1.532278	-0.840106	-0.066276	-1.856966	-0.524019	-0.706918	-1.105339	1.002741	0.838295	0.919163	0.844615	1.804178	1.74217	1.465351	1.964395
0.244009	-1.042862	-0.55304	0.154921	-2.040544	-0.563601	-0.602411	-1.018591	0.89401	0.629248	0.877226	0.821039	1.72617	1.611233	1.296351	1.867112
-0.065665	-1.59673	-0.776079	-0.080654	-2.017629	-0.410627	-0.455858	-0.919599	0.615954	0.366188	0.500583	0.52288	1.156044	1.112552	0.733869	1.306701
0.839003	-0.500632	-0.076176	0.426868	-1.948702	-0.40137	-0.404574	-0.833953	0.590443	0.447777	0.494074	0.572987	0.8456	0.899977	0.539712	1.231272
0.248268	-1.219392	-0.485337	0.081358	-1.972023	-0.465384	-0.373553	-0.85214	0.308725	0.097403	-0.02813	0.170889	0.531741	0.596562	0.195004	0.920805
0.809736	-0.502029	-0.005732	0.43455	-2.041466	-0.578436	-0.638979	-1.088094	0.390811	0.333008	0.308232	0.39496	0.709021	0.724412	0.512398	1.089904
0.573608	-0.749266	-0.033441	0.258293	-1.83391	-0.288544	-0.294867	-0.777717	0.331766	0.160419	0.011076	0.21789	0.313658	0.411147	0.137359	0.711552
0.846839	-0.882708	0.28744	0.265216	-1.718263	-0.160261	-0.215819	-0.742735	0.50245	0.333008	0.225108	0.36928	0.393769	0.481198	0.137359	0.834424
0.873506	-1.213295	0.120453	0.118173	-1.533007	-0.136035	-0.148204	-0.639558	0.806609	0.662885	0.658162	0.718269	0.570507	0.581795	0.195004	0.854533
0.991646	-0.594259	0.272372	0.345244	-1.22779	-0.071998	-0.260442	-0.676357	0.804973	0.703454	0.665012	0.76851	0.261923	0.309998	-0.145795	0.644969
0.33862	-1.105809	-0.199614	0.110802	-0.760693	0.34094	0.301035	-0.156342	0.686027	0.45181	0.623758	0.641744	0.377761	0.595929	0.021105	0.849027
0.636227	-0.816791	-0.059291	0.353656	-1.133161	-0.0963660000000001	-0.161414	-0.648036	0.595798	0.400144	0.56163	0.615438	-0.336271	-0.00615300000000002	-0.592313	0.321034
0.299042	-1.004207	-0.26021	0.318375	-1.437558	-0.299496	-0.413592	-0.969193	0.56439	0.293004	0.436686	0.561878	0.15624	0.509294	-0.010586	0.865988
1.030207	-0.339318	0.136685	0.635883	-1.464031	-0.265318	-0.342584	-0.913522	0.6843	0.430821	0.609985	0.638925	0.643718	0.867775	0.509617	1.172707
0.085546	-1.156529	-0.294454	0.206728	-1.741515	-0.329586	-0.300497	-1.006711	0.103385	-0.267523	-0.237011	0.015405	0.15624	0.477798	-0.026467	0.778363
0.512496	-0.824607	-0.016714	0.367053	-2.087266	-0.808899	-0.799824	-1.474082	-0.235461	-0.625721	-0.757812	-0.413025	0.463877	0.646772	0.302486	1.069327
-0.246512	-1.482909	-0.512745	-0.071868	-2.156969	-0.904194	-0.971563	-1.542053	0.10815	-0.223557	-0.347026	-0.0804579999999999	-0.230213	0.040403	-0.324836	0.356619
0.305283	-1.212249	-0.107706	0.111352	-2.15749	-0.798295	-0.831225	-1.425839	-0.00365099999999996	-0.347951	-0.533984	-0.227829	-0.563795	-0.292905	-0.652749	0.00910900000000001
1.105885	-0.309107	0.392462	0.330248	-2.111968	-0.622267	-0.446497	-1.036688	-0.030968	-0.411836	-0.607745	-0.346896	-0.129531	0.048222	-0.123317	0.338838
0.951455	-0.64811	0.423832	0.125756	-2.205512	-0.861639	-0.789955	-1.333413	0.66902	0.459753	0.445526	0.475528	-1.699162	-1.100931	-1.447959	-0.76305
1.401064	0.159633	0.573648	0.329696	-1.555643	-0.325016	-0.21359	-0.84339	0.354966	0.119484	-0.0653899999999999	0.0737869999999999	-0.023381	0.093085	0.01319	0.48448
0.749366	-0.377926	-0.110851	0.0312720000000001	-1.29974	-0.302435	-0.165669	-0.876973	0.858614	0.763883	0.816436	0.796346	-0.498414	-0.116763	-0.305816	0.231872
0.372896	-0.534811	-0.432591	-0.171748	-1.741294	-0.646796	-0.612885	-1.190962	0.827793	0.652964	0.658298	0.596008	-0.456873	-0.049787	-0.332226	0.271142
-0.186404	-0.988439	-0.910214	-0.427479	-1.603503	-0.287239	-0.227333	-0.859267	0.403876	0.10008	0.015226	0.0452990000000001	-0.025025	0.199664	-0.00265500000000002	0.510133
0.445519	-0.297094	-0.462767	-0.041809	-2.132379	-0.597773	-0.654482	-1.213939	0.461116	0.132971	0.0432419999999999	0.093293	0.665994	0.811891	0.59401	1.086525
-0.468517	-1.276754	-0.96246	-0.34938	-2.063448	-0.470754	-0.649343	-1.116857	0.722278	0.595725	0.6238	0.54751	0.37888	0.55271	0.195008	0.818815
0.530429	-0.188392	-0.228488	0.213289	-1.903016	-0.087685	-0.111468	-0.748869	0.354966	0.218007	0.115226	0.221308	0.494437	0.564636	0.217967	0.820553
-0.093469	-1.049921	-0.774719	-0.174578	-1.511894	0.24023	0.219096	-0.344143	0.374207	0.262701	0.077162	0.239303	0.707318	0.736434	0.352105	0.994043
0.795198	-0.297094	0.028948	0.337733	-2.227829	-0.472871	-0.597129	-1.151463	0.56988	0.47275	0.381985	0.465521	0.418329	0.564636	0.16411	0.899136
0.637493	-0.663496	0.166226	0.088818	-1.996455	-0.280831	-0.512923	-1.001501	0.536587	0.39381	0.332837	0.412226	0.302496	0.450409	0.183287	0.879129
1.481804	0.265192	0.721159	0.543343	-1.341145	0.201622	0.183425	-0.436903	0.302187	0.136411	0.010766	0.129753	0.514528	0.667082	0.279855	0.992789
0.304494	-0.859892	-0.149621	-0.043414	-1.292138	-0.047774	-0.118474	-0.717977	0.06823	-0.215008	-0.382954	-0.177541	-0.027241	0.350177	-0.193054	0.647622
0.938982	0.0969	0.17731	0.360339	-1.019503	0.329309	0.342287	-0.333914	0.321919	0.00283	-0.041244	0.12523	0.4167	0.64814	0.152463	0.954427
0.400751	-0.482686	-0.193818	0.10357	-1.810676	-0.335816	-0.466776	-1.099663	0.302187	-0.0696640000000001	-0.164929	-0.047338	1.438934	1.422465	1.039506	1.694201
1.017854	0.09578	0.05887	0.322787	-2.064285	-0.526971	-0.581647	-1.17978	0.687759	0.402534	0.644447	0.517706	1.527972	1.358997	1.144148	1.647568
0.183063	-0.878179	-0.571493	-0.193852	-2.13121	-0.475822	-0.462549	-1.144482	0.222225	-0.145268	-0.035569	-0.025706	0.980501	0.899977	0.561357	1.175458
0.663549	-0.215523	-0.302622	0.068043	-1.924485	-0.219561	-0.138618	-0.83886	0.140232	-0.149945	-0.132401	-0.048805	0.831214	0.763041	0.411772	1.074064
-0.296811	-1.293445	-0.85307	-0.447244	-1.970848	-0.291681	-0.266675	-0.861342	0.26085	-0.047287	0.029332	0.032884	-0.119674	0.0189130000000001	-0.44512	0.217979
0.773297	-0.282858	0.031386	0.140754	-2.130903	-0.424986	-0.488725	-1.035856	0.088075	-0.161362	-0.239802	-0.167987	0.589316	0.507887	0.115619	0.688751
1.170281	-0.167039	0.460206	0.307579	-1.719189	-0.030276	-0.035771	-0.697656	0.276964	0.049284	-0.0150979999999999	0.076392	0.210006	0.314351	-0.070906	0.500626
1.183172	-0.108414	0.469476	0.184348	-1.489111	0.159753	0.206037	-0.499277	0.051026	-0.209614	-0.387925	-0.201749	-0.119674	0.106829	-0.240339	0.269462
0.523792	-0.769586	-0.259356	-0.198975	-1.649834	-0.300848	-0.43692	-0.985506	0.608546	0.495825	0.486179	0.569691	0.411336	0.557533	0.168427	0.703856
0.629136	-0.468316	-0.332172	-0.082282	-1.146116	0.0804370000000001	0.0789029999999999	-0.627332	0.492633	0.32428	0.396753	0.36928	0.116264	0.279572	-0.239244	0.328395
0.46225	-0.70308	-0.585555	-0.205724	-1.46859	-0.141335	-0.13296	-0.786426	0.403876	0.069938	0.140407	0.167336	0.783676	0.732646	0.317548	0.9558
0.904291	-0.0699259999999999	-0.133723	0.220649	-1.810663	-0.220992	-0.297412	-0.854292	0.573569	0.335952	0.375503	0.418704	0.57777	0.55271	0.021105	0.608817
0.215362	-0.739525	-0.48236	-0.0754320000000001	-2.129618	-0.584868	-0.715851	-1.230518	0.632488	0.42366	0.410286	0.419653	0.633738	0.603813	0.0527030000000001	0.745412
0.530429	-0.564943	-0.480915	0.011007	-2.107226	-0.497617	-0.607456	-1.230518	0.242885	0.00714600000000001	0.025869	0.148716	0.203273	0.257205	-0.265314	0.423674
0.088832	-1.101339	-0.814335	-0.278641	-2.428448	-0.846828	-1.156898	-1.658497	0.213174	-0.110519	-0.0784400000000001	0.12291	0.693603	0.631497	0.202714	0.749899
0.834397	-0.419929	-0.289313	0.0976	-2.176442	-0.606131	-0.819222	-1.439732	0.348668	0.097403	0.119788	0.244819	0.012408	0.204091	-0.29965	0.293425
0.47038	-0.926421	-0.126974	-0.0973700000000001	-2.202004	-0.672154	-0.97624	-1.560466	0.318967	0.037214	0.105153	0.269487	0.389221	0.483194	0.079393	0.575422
0.938982	-0.494157	0.219949	0.185095	-1.926236	-0.466121	-0.700941	-1.383168	0.284945	0.012291	-0.00113600000000003	0.166163	0.86039	0.83386	0.476014	0.935925
0.722309	-0.697703	-0.110851	0.0200509999999999	-1.833783	-0.714031	-1.039422	-1.691856	0.246502	-0.095693	-0.094904	0.110697	0.5709	0.631141	0.202666	0.725041
0.749366	-0.272252	-0.088157	0.278578	-1.374059	-0.0147320000000002	-0.317208	-0.974092	0.64104	0.296097	0.288791	0.409538	0.684344	0.717526	0.334581	0.818815
0.451685	-0.304044	-0.322438	0.206357	-1.719379	-0.0780749999999999	-0.359041	-1.048067	0.734811	0.429791	0.624177	0.665219	0.598986	0.607787	0.277098	0.749652
0.530429	-0.527895	-0.405411	0.069512	-1.993845	-0.237504	-0.519332	-1.105289	0.48103	0.226539	0.262652	0.413134	0.813396	0.784109	0.264744	0.808721
-0.034256	-1.210682	-0.776079	-0.146513	-2.016868	-0.237504	-0.555708	-1.070982	0.39983	0.141263	0.026993	0.287869	1.054987	0.857856	0.587566	1.030065
0.604811	-0.449641	-0.139281	0.307238	-1.856765	-0.094306	-0.275209	-0.904793	0.403876	0.223678	0.299316	0.416824	0.838601	0.728861	0.294947	0.781971
0.435244	-0.721345	-0.141731	0.148782	-1.879909	-0.00691700000000006	-0.171429	-0.847356	0.538444	0.381357	0.540804	0.614711	0.783676	0.674031	0.206349	0.745412
1.183148	-0.224058	0.570158	0.429429	-2.296362	-0.61219	-0.857814	-1.375623	0.644454	0.396968	0.561599	0.613274	1.025579	0.885626	0.552784	0.953166
1.312562	-0.419929	0.339923	0.285633	-1.880042	-0.341735	-0.602411	-1.139989	0.609606	0.437307	0.505933	0.611169	1.421744	1.153832	0.789348	1.192338
1.465858	-0.234519	0.339623	0.300037	-1.695107	-0.213412	-0.435648	-1.013276	0.546469	0.330153	0.302625	0.482137	1.304503	1.059834	0.574317	1.13524
0.758424	-0.673055	-0.26021	0.01896	-1.765001	-0.291681	-0.519332	-1.105415	0.601075	0.30563	0.37965	0.50648	1.647168	1.373875	0.96325	1.459455
1.221648	-0.186133	-0.061507	0.256819	-1.970493	-0.345341	-0.535057	-1.174159	0.862591	0.598327	0.799803	0.811842	1.912796	1.505725	1.191708	1.650103
0.384039	-1.02276	-0.57525	-0.161716	-2.267826	-0.553393	-0.794904	-1.341439	0.670707	0.375815	0.58245	0.638925	1.339769	1.137514	0.650166	1.230247
0.782866	-0.64309	-0.321235	0.061696	-1.902252	-0.0857780000000001	-0.207915	-0.858158	0.351924	4.000000000004E-06	0.051175	0.28078	1.587723	1.270136	0.921749	1.431414
0.597838	-0.793515	-0.336037	0.06096	-1.925766	-0.150026	-0.435648	-1.024497	0.407931	0.151167	0.26124	0.482932	1.360338	1.172306	0.810433	1.373874
1.106274	-0.363353	-0.115566	0.314928	-1.833916	-0.0230080000000001	-0.294867	-0.885801	0.520141	0.215976	0.288791	0.557488	1.499767	1.244864	0.90705	1.392715
1.632529	-0.0800780000000001	0.44945	0.526545	-1.926236	-0.078783	-0.399079	-0.937697	0.338088	0.14456	-0.093579	0.24684	1.54808	1.459915	1.102824	1.642461
1.404897	-0.539133	0.272069	0.329275	-1.417993	0.446203	0.151961	-0.43041	0.42841	0.197421	-0.035177	0.275891	0.480523	0.72663	0.342038	0.883368
1.028266	-0.606258	-0.059676	0.242267	-0.911591	0.644317	0.493468	-0.211001	0.569449	0.411943	0.288305	0.504976	0.780499	0.990985	0.608198	1.114802
1.285418	-0.301671	-0.052312	0.350592	-1.419143	0.160065	-0.0866020000000001	-0.705465	0.511211	0.321826	0.210753	0.378322	2.06391	1.841725	1.722751	2.074218
1.106285	-0.253429	-0.141731	0.379491	-1.421577	0.310495	0.10303	-0.511059	0.914936	0.650836	0.681601	0.785211	1.915707	1.775453	1.687592	2.074218
1.439193	-0.0500210000000001	0.009354	0.487804	-2.109224	-0.285794	-0.539886	-1.0647	1.290022	1.158514	1.400134	1.317079	1.267373	1.347192	1.166444	1.682136
1.221648	-0.156801	-0.012715	0.415783	-2.040132	-0.126009	-0.342584	-0.856833	0.516551	0.259584	0.070955	0.328976	2.333839	2.069962	1.985174	2.389919
0.965356	-0.494157	-0.24555	0.271202	-1.765073	0.135994	0.005409	-0.53368	0.578082	0.429556	0.317408	0.534603	0.409963	0.635484	0.441258	1.048021
1.105885	-0.390276	-0.200734	0.263988	-1.581856	0.453036	0.316449	-0.240109	0.492064	0.308832	0.184864	0.408655	0.832015	0.966134	0.817257	1.373874
2.030236	0.172538	0.61742	0.6755	-2.179078	-0.245072	-0.472189	-0.960671	0.464003	0.30563	0.073263	0.308732	1.607688	1.566028	1.431265	1.886946
1.898558	-0.0691519999999999	0.615042	0.544714	-1.603503	0.302338	0.115282	-0.482021	1.092106	0.998251	1.035451	1.115569	0.934497	1.042903	0.913764	1.373478
2.23836	0.258947	0.670476	0.724165	-1.050337	0.540149	0.426571	-0.240109	0.486589	0.225336	0.049986	0.406904	0.432823	0.737779	0.49058	1.029156
1.259749	-0.405504	0.031386	0.314418	-1.168069	0.412964	0.310069	-0.378845	1.03076	0.858029	0.926295	1.064559	0.972004	1.099379	0.900334	1.373874
1.436647	-0.357597	-0.078348	0.400651	-1.719029	-0.0547950000000001	-0.399079	-0.890526	0.798876	0.411943	0.492076	0.683918	1.256978	1.344255	1.160125	1.605934
1.056294	-0.535146	-0.300975	0.271202	-2.063223	-0.190499	-0.466776	-1.017837	0.42841	0.141468	-0.00675499999999998	0.328976	1.447605	1.448567	1.319057	1.749113
1.847137	0.0177419999999999	0.013577	0.640361	-1.810844	0.199545	-0.000566000000000066	-0.624462	0.460283	0.259584	0.008078	0.354079	1.268706	1.254714	1.17908	1.566368
0.926584	-0.677892	-0.447083	0.242267	-1.696558	0.350531	0.176196	-0.433386	0.439768	0.336581	0.199364	0.51035	0.618348	0.846998	0.623186	1.106045
2.015861	0.340653	0.32504	0.871018	-1.856712	0.199545	-0.067701	-0.624462	0.725074	0.605356	0.547724	0.813326	0.710373	1.014825	0.747814	1.211294
1.324546	-0.520405	0.11311	0.487804	-2.109742	-0.126009	-0.482928	-0.925654	0.606174	0.522709	0.359245	0.685713	1.014891	1.137514	0.996322	1.373874
2.119309	0.0177419999999999	0.7916	0.739449	-2.041947	-0.0308390000000001	-0.368033	-0.890526	0.976754	0.943836	0.967173	1.241335	0.897293	1.077756	0.947293	1.392715
2.015861	0.0571390000000001	0.663276	0.739449	-1.416361	0.279533	-0.0071699999999999	-0.501343	1.057897	0.95579	0.836288	1.139724	0.724901	1.036161	0.720359	1.393233
1.679639	-0.0798619999999999	0.276993	0.537277	-1.349674	0.405979	0.188669	-0.294046	1.231367	1.158514	1.150702	1.367641	-0.268448	0.276393	-0.163672	0.507416
0.686841	-0.987159	-0.463493	0.106027	-1.489681	0.342302	0.151961	-0.32326	1.661891	1.543708	1.639307	1.796653	1.308819	1.422465	1.166922	1.749113
1.870649	0.202711	0.345088	0.81664	-1.376303	0.650559	0.420025	-0.109839	1.378573	1.262259	1.279736	1.442998	0.902052	1.071087	0.638706	1.316686
1.144772	-0.509243	-0.170161	0.371889	-1.765133	0.262507	-0.067701	-0.549921	1.034459	0.885357	0.63893	1.013915	1.039515	1.162681	0.775613	1.451763
1.569085	-0.109231	0.055325	0.594955	-1.926029	0.016699	-0.351293	-0.755237	0.664057	0.488216	0.240318	0.660622	1.020516	1.099379	0.74834	1.393879
1.429773	-0.50159	-0.094618	0.451474	-1.856956	0.239472	-0.179084	-0.650921	1.150824	1.083637	0.993452	1.241593	0.691679	0.899394	0.528996	1.13394
2.671425	0.651741	1.116884	1.12686	-1.511032	0.493242	0.0908949999999999	-0.309854	0.975455	0.943836	0.765257	1.089334	1.448291	1.520578	1.186116	1.740125
1.813978	-0.244971	0.50916	0.651405	-1.416779	0.51009	0.170743	-0.296355	1.318362	1.275171	1.205805	1.468764	0.109095	0.568428	0.165335	0.873348
2.222979	0.231653	0.533988	0.780175	-1.417993	0.191496	-0.159878	-0.618089	1.002453	0.885357	0.681601	1.0386	1.249369	1.39072	1.083327	1.749113
1.593458	-0.118507	0.135727	0.557788	-1.144956	0.555139	0.249472	-0.197478	1.031986	0.850323	0.870782	1.114595	0.624838	0.984213	0.431172	1.133749
2.245286	0.569927	0.444133	0.971847	-1.331132	0.616698	0.267182	-0.246801	1.031986	0.881473	0.772862	1.013081	0.896417	1.184905	0.651614	1.298081
1.634562	-0.0505499999999999	0.07707	0.680183	-1.833779	0.207169	-0.269585	-0.630811	1.093295	0.959233	0.792227	1.115359	1.956585	1.905653	1.559033	2.031113
2.140811	0.447336	0.330188	0.860968	-1.788002	0.25445	-0.140701	-0.504625	1.007532	0.904858	0.617907	1.03911	1.397314	1.512327	1.078573	1.683995
1.443395	-0.441825	-0.221507	0.444102	-1.971334	0.0329840000000001	-0.342584	-0.659885	0.778115	0.667439	0.337899	0.811361	1.617174	1.687397	1.351767	1.824909
2.103343	0.358042	0.510896	0.924325	-1.902654	0.175486	-0.275209	-0.556331	0.949886	0.935969	0.63893	1.03911	0.872483	1.169093	0.768668	1.297382
2.230448	0.114648	0.711684	0.908788	-1.787916	0.262507	-0.134915	-0.417355	0.748435	0.608899	0.274446	0.811361	1.400138	1.436929	1.21408	1.736336
2.311913	0.412801	0.859832	0.977299	-1.46473	0.412964	0.0420049999999998	-0.38823	1.11804	1.060614	0.849659	1.26657	1.270161	1.399507	1.085077	1.593925
2.208243	0.258947	0.596421	0.878008	-1.326495	0.309683	-0.073566	-0.43041	1.173603	1.154309	0.885269	1.216018	0.84293	1.007992	0.671865	1.143963
2.370763	0.46114	0.412883	0.856973	-1.19007	0.491629	0.170007	-0.284959	1.027126	0.893184	0.591227	1.038118	1.319148	1.462767	1.100215	1.58475
1.439193	-0.446108	-0.147411	0.443185	-1.581669	0.262507	-0.171429	-0.520814	1.517209	1.337817	1.356582	1.569894	1.328265	1.425346	1.16324	1.671343
1.49056	-0.194746	0.020375	0.600356	-1.810808	0.104306	-0.286371	-0.585386	1.148571	0.967099	0.807439	1.190906	1.247909	1.292569	1.115658	1.470413
1.964219	0.153011	0.235016	0.76498	-1.902015	0.0727279999999999	-0.389934	-0.7242	1.06512	0.963156	0.687826	1.115359	1.098965	1.229185	1.122072	1.422046
2.119309	0.432651	0.423832	0.992814	-1.742339	0.143812	-0.291906	-0.627036	1.067585	1.04448	0.875301	1.292023	0.643718	0.976475	0.76156	1.096291
1.634562	-0.175817	0.028948	0.665164	-1.650993	0.317061	-0.121553	-0.443374	0.72188	0.663835	0.337899	0.837446	0.963977	1.20704	0.948419	1.29722
1.908856	0.017633	0.27782	0.672662	-1.971628	0.009633	-0.359041	-0.655987	0.806257	0.694867	0.400885	0.938409	0.555277	0.846998	0.650675	0.971855
2.760639	0.598332	1.032142	1.086995	-1.58063	0.419986	0.060467	-0.275856	1.033219	1.05655	0.856335	1.26657	0.832015	1.036161	0.900334	1.15366
2.978613	0.787963	1.124687	1.191224	-1.372841	0.270002	-0.182859	-0.465905	0.945889	0.939892	0.702716	1.140022	1.041869	1.203863	0.90705	1.220715
2.48073	0.650897	0.861286	1.110235	-1.467243	0.191035	-0.266675	-0.565451	0.91628	0.78808	0.548453	1.064086	1.139269	1.327294	1.115658	1.422046
2.58996	0.803304	0.708992	1.180331	-1.6054	0.214598	-0.163538	-0.485145	1.402666	1.355893	1.292794	1.620019	2.065668	2.072031	1.914828	2.132276
1.55306	-0.107156	0.051974	0.656595	-1.310118	0.717971	0.394167	0.112195	1.232376	1.052507	1.004265	1.317086	1.466923	1.642676	1.459441	1.760182
2.495743	0.642804	0.596421	1.105093	-2.061752	0.009633	-0.353584	-0.591738	1.605095	1.561146	1.687744	1.846394	1.687656	1.706606	1.722751	1.952377
1.710419	-0.127527	0.145246	0.665164	-1.765136	0.443415	0.0969520000000001	-0.188638	0.806257	0.784336	0.63893	0.963909	1.144624	1.312342	1.271694	1.491164
2.05923	0.221021	0.293367	0.858901	-1.536982	0.680083	0.407032	0.082031	1.092106	1.114789	1.009319	1.367504	1.78633	1.816988	1.82041	2.053845
2.028151	-0.00182199999999999	0.171695	0.774271	-1.354069	0.931132	0.680001	0.272142	0.488409	0.522709	0.232428	0.710816	1.776576	1.912471	1.890399	2.149317
3.290997	1.044996	1.331828	1.388546	-1.764903	0.499961	0.151961	-0.080591	0.486589	0.491639	0.14121	0.660622	1.57725	1.650444	1.744968	1.958311
2.671425	0.366765	0.974142	0.95863	-1.626402	0.570102	0.243172	-0.072102	0.715567	0.733304	0.456935	0.938409	2.005628	2.042195	2.040985	2.273733
3.223791	1.003033	1.200189	1.277508	-1.486894	0.286112	-0.0925039999999999	-0.336571	1.05555	1.131408	0.999287	1.393029	2.054496	2.110132	2.086226	2.41456
2.193589	0.181863	0.355908	0.74237	-1.304258	0.451647	0.176196	-0.101262	0.676316	0.658177	0.329726	0.83436	1.55718	1.770619	1.728305	1.952377
1.987354	0.133573	0.235016	0.685171	-1.444855	0.395505	0.090905	-0.202092	1.11135	1.072929	0.90913	1.215771	0.934549	1.350135	1.296351	1.586112
1.772028	-0.079189	-0.059676	0.571714	-1.560174	0.505274	0.291125	0.031994	1.112446	1.077076	0.802769	1.165156	1.647604	1.773032	1.768942	1.990184
2.614398	0.598332	0.5768	1.042482	-1.810663	0.395505	0.084889	-0.15076	0.801808	0.822995	0.400718	0.837446	1.81812	1.775453	1.885047	2.02793
2.21549	0.398312	0.341303	0.974255	-1.331511	0.931132	0.680001	0.40371	0.89218	1.052507	0.743457	1.090932	1.537135	1.613368	1.628761	1.81601
2.833626	0.933065	0.831176	1.268363	-1.489956	0.720352	0.413513	0.176765	1.08975	1.24388	0.968533	1.291877	1.397314	1.552365	1.640174	1.833799
2.223237	0.311738	0.605674	1.076886	-1.67244	0.525133	0.194953	-0.000941000000000025	0.94066	1.053996	0.619333	1.063643	1.51747	1.555086	1.651587	1.851553
2.634667	0.418585	1.086827	1.17679	-1.810676	0.469739	0.0908949999999999	-0.082085	0.594363	0.602912	0.195654	0.758997	0.855701	1.156288	1.156878	1.38382
2.634667	0.410136	1.099707	1.068907	-1.717984	0.389443	0.005409	-0.154595	0.481169	0.446552	-0.00179100000000001	0.607787	0.785052	1.156288	1.122072	1.412668
2.519924	0.389777	0.876209	0.995278	-1.417993	0.396522	0.029976	-0.197478	0.679434	0.752115	0.386467	0.861291	1.387898	1.491618	1.471978	1.756139
2.311913	0.418585	0.615042	1.008428	-1.236327	0.498433	0.090905	-0.078981	0.415427	0.335122	-0.238606	0.401802	1.547651	1.660888	1.668708	1.935616
1.973221	0.269554	0.471378	0.927675	-1.581066	0.222811	-0.275209	-0.381633	1.312113	1.328635	1.107623	1.393125	1.176186	1.353083	1.239087	1.604446
1.912632	0.260537	0.419785	0.943103	-1.604962	0.475056	0.029976	-0.116718	0.93937	0.814842	0.584322	0.962256	1.797676	1.77788	1.825865	2.082813
1.762171	-0.099229	0.229888	0.780175	-1.719258	0.578498	0.0786290000000001	-0.015032	0.426538	0.325121	-0.128173	0.406039	1.708742	1.736153	1.768942	2.18194
1.91776	0.202711	0.362788	0.945391	-1.856765	0.491629	-0.0983750000000001	-0.154595	0.629283	0.658177	0.231813	0.685108	1.707982	1.807407	1.779949	2.178303
1.752428	-0.00182199999999999	0.283794	0.874352	-1.466353	0.87949	0.359595	0.264435	0.85975	1.018475	0.646259	1.140712	2.285531	2.237736	2.310764	2.673357
2.613666	1.031462	1.04685	1.400954	-1.580167	0.833204	0.219096	0.183444	1.087424	1.234147	0.90643	1.291818	0.606264	0.997775	0.941755	1.440772
2.00521	0.251537	0.794431	0.968915	-1.694782	0.740243	-0.0806689999999999	-0.09601	0.720292	0.725917	0.400885	0.863468	0.885563	1.226065	1.077137	1.444601
3.166152	1.493029	1.589938	1.537288	-1.626	0.720352	-0.140701	-0.157498	0.807753	0.831403	0.519987	0.888558	2.026193	2.044321	2.10124	2.32492
2.446257	0.814058	0.987607	1.084249	-1.302819	0.885084	0.0359749999999999	-0.019199	0.920355	0.924318	0.716318	1.014814	1.617219	1.782754	1.724947	2.02433
2.744692	0.814058	0.90357	1.191224	-0.822002	1.140674	0.254693	0.207264	0.632611	0.570861	0.175186	0.633593	1.796072	1.855927	1.812194	2.147335
2.05923	0.211859	0.366185	0.841748	-0.600823	1.529938	0.689455	0.693322	0.576343	0.508977	0.055163	0.48135	2.216094	2.237736	2.238923	2.338095
2.001566	0.444059	0.177924	0.982785	-1.310843	1.059715	0.206037	0.287757	0.78118	0.618761	0.267263	0.585428	2.118624	2.137994	2.122041	2.35963
1.208776	-0.416546	-0.262796	0.612628	-1.425432	1.042219	0.193908	0.266587	1.10058	1.020883	0.792227	1.066151	2.394028	2.308935	2.217692	2.451795
1.221708	-0.144816	-0.099498	0.738798	-1.629117	0.862159	-0.047264	0.093967	0.712023	0.795021	0.395119	0.667985	3.082089	2.703174	2.754758	2.862959
1.145367	-0.203113	-0.219594	0.640282	-1.674246	0.859639	0.0680319999999999	0.132332	0.808249	0.888402	0.644375	0.847487	2.833314	2.385063	2.573541	2.743064
1.082299	-0.335783	-0.405411	0.470986	-2.012876	0.611577	-0.196901	-0.16124	0.753231	0.820892	0.630626	0.897879	1.93376	1.744758	1.904231	2.164273
1.323623	-0.126028	-0.395648	0.548752	-1.854161	0.66426	-0.122262	-0.021004	0.080803	0.029508	-0.334259	0.12794	1.113858	1.107981	1.341988	1.45061
1.996343	0.563054	0.225269	0.935315	-2.127148	0.448424	-0.36575	-0.24651	0.160567	0.149513	-0.2112	0.20023	0.934497	1.038872	1.141158	1.12558
2.171116	0.606445	0.501488	1.043052	-1.764923	0.916439	0.248018	0.283052	0.268163	0.42062	0.084507	0.446224	1.42056	1.397953	1.488742	1.45061
3.177421	1.293671	1.189589	1.378274	-2.015059	0.63624	-0.0283360000000001	0.00975300000000001	0.061602	0.232313	-0.140414	0.316791	1.429691	1.391903	1.523979	1.549126
2.728889	0.905626	0.825177	1.125873	-1.970307	0.598232	-0.083342	-0.064769	-0.14409	-0.01929	-0.528468	0.085877	1.461254	1.407065	1.593779	1.701877
2.93358	1.245187	0.71376	1.277593	-1.833563	0.4027	-0.324502	-0.223619	-0.212502	-0.036292	-0.654353	0.00380799999999998	1.600179	1.42235	1.553178	1.717489
2.486594	0.808416	0.222917	1.089885	-1.447459	0.965103	0.217979	0.274354	-0.058623	0.127769	-0.261311	0.264098	1.137291	1.118132	1.232826	1.417845
2.092855	0.582858	0.010598	0.905559	-1.99143	0.512152	-0.257919	-0.267979	0.45133	0.543667	0.387619	0.7661	0.942434	1.028541	1.083561	1.391161
1.772761	0.489573	-0.09376	0.878818	-2.284716	0.222361	-0.570748	-0.478201	0.531052	0.618761	0.394043	0.889426	1.084414	1.101235	1.261445	1.556235
2.508182	1.037797	0.366391	1.370356	-2.101999	0.550398	-0.238223	-0.217108	0.387818	0.508977	0.07208	0.636207	1.834344	1.872805	1.890399	2.14301
2.268535	0.940117	0.170381	1.255105	-2.304982	0.512152	-0.396416	-0.292997	-0.035873	0.061612	-0.486937	0.307752	1.191827	1.254329	1.372299	1.683816
1.612994	0.300413	-0.381495	0.846022	-2.486553	0.363988	-0.658596	-0.456246	-0.14409	0.0587259999999999	-0.603481	0.181906	1.637976	1.624984	1.553178	1.932228
1.652752	0.516883	-0.259356	1.037627	-2.420009	0.490178	-0.550523	-0.391902	-0.146669	0.092445	-0.520598	0.331789	1.248034	1.372932	1.380145	1.735489
1.641995	0.195497	-0.461185	0.904717	-2.103516	0.804363	-0.144248	0.031994	-0.633347	-0.474287	-1.305662	-0.250887	0.644887	1.066636	0.955081	1.377791
2.63549	1.216662	0.516524	1.557245	-2.559635	0.388345	-0.787979	-0.488468	0.072856	0.346363	-0.284268	0.582631	0.058345	0.685656	0.644513	1.153143
2.43099	0.655301	0.502705	1.363946	-1.947383	1.076114	0.0789029999999999	0.308648	-0.134191	0.147671	-0.460989	0.428647	1.4511	1.802519	1.877016	2.366178
3.996393	2.171376	1.506716	2.056808	-2.063223	0.905938	-0.286371	-0.030331	0.02639	0.408184	-0.311536	0.628096	0.977561	1.634589	1.616807	2.134833
2.504601	0.698048	0.417984	1.359613	-1.166925	1.640954	0.560287	0.759511	0.084808	0.526918	-0.035177	0.858537	0.320223	1.172306	0.96987	1.660958
3.229228	1.707859	0.676253	1.792924	-1.511326	1.047397	-0.0866020000000001	0.101185	0.539468	1.024469	0.590747	1.394183	0.321305	1.2865	1.131412	1.820266
1.884564	0.611385	-0.205383	1.309944	-1.214777	1.388439	0.151961	0.457348	0.332244	0.763498	0.13878	1.087443	0.286571	1.245524	1.077137	1.811386
1.833252	0.82043	-0.231183	1.281029	-1.331132	1.521334	0.279797	0.516871	0.475804	0.818972	0.343973	1.189873	0.722074	1.629862	1.465308	2.138864
1.813978	0.588951	-0.361552	1.284699	-1.195279	1.925021	0.753333	0.894666	0.360568	0.597345	0.010826	0.882951	1.134076	2.023402	1.826251	2.454714
2.760639	1.551187	0.250715	1.77497	-1.994206	1.070517	-0.300497	-0.010997	0.387037	0.692204	0.109541	0.984827	1.982577	2.609316	2.476428	3.004855
2.465346	1.169665	0.150323	1.710247	-1.374835	1.822997	0.647572	0.883747	0.477586	0.870212	0.351087	1.189897	1.971113	2.51293	2.444816	2.891435
2.78457	1.509621	0.325926	1.886645	-1.880048	1.260375	-0.173225	0.175346	0.559298	1.101019	0.577966	1.446053	2.254797	2.708465	2.813815	3.215596
2.224723	1.140996	0.10763	1.665795	-1.625789	1.576591	0.294475	0.581376	0.383315	0.867207	0.166059	1.21555	1.980617	2.511516	2.516838	2.876456
2.118315	0.75039	0.209459	1.665795	-1.903265	1.363933	0.029763	0.334374	0.498967	1.022717	0.358064	1.318304	0.546177	1.452904	1.323041	1.754917
2.706477	1.216161	0.748921	1.890635	-1.646943	1.737802	0.358216	0.713076	0.614625	1.082301	0.571052	1.498063	1.466923	2.186935	2.020006	2.511208
3.303713	1.481346	1.123969	2.059702	-1.646146	1.616382	0.171992	0.552978	0.667124	1.159922	0.557836	1.551176	1.253724	2.076362	1.769077	2.296746
2.677927	1.060405	0.637369	1.790023	-1.036493	1.90258	0.598878	0.923254	0.956838	1.559436	1.11402	1.990106	1.647604	2.314839	1.979275	2.592525
2.878376	1.301835	0.683246	1.950012	-0.637855	2.156668	0.816106	1.198127	0.951007	1.497659	0.925657	1.942972	1.516972	2.309891	1.974145	2.614442
1.599992	0.251092	-0.100194	1.490644	-0.830428	2.001717	0.703854	1.031918	0.802674	1.289936	0.653673	1.684307	1.994171	2.702816	2.368356	2.914086
2.529531	1.209235	0.44771	2.050447	-0.787325	2.167397	0.891087	1.255442	0.629333	0.974688	0.422961	1.423594	1.395347	2.170676	1.851336	2.373052
2.560899	1.466893	0.486155	2.078296	-1.439247	1.646588	0.215701	0.715771	0.51576	0.81726	0.200779	1.267995	2.482123	3.133725	2.781654	3.274321
2.545171	1.186351	0.364063	1.968371	-1.486549	1.813914	0.561547	0.926731	0.751746	1.187746	0.557836	1.603478	2.757984	3.268501	2.873232	3.473448
2.412346	1.335342	0.360568	1.996125	-1.602122	1.527818	0.338165	0.765694	0.695783	1.146063	0.479125	1.577087	2.386149	2.903909	2.574347	3.115947
2.788597	1.630649	0.748921	2.277893	-1.506946	1.745657	0.432906	0.882567	1.132638	1.818231	1.315448	2.219584	2.413072	2.90569	2.69431	3.197462
2.582702	1.41041	0.771243	2.235839	-1.598935	1.733104	0.409199	0.860441	0.866826	1.465169	0.721772	1.862287	1.537442	2.404835	2.04558	2.592525
3.879018	2.279887	1.749429	2.818862	-1.479575	1.820216	0.46058	0.916863	1.303109	2.030283	1.185124	2.251101	1.931154	2.705044	2.426857	2.862183
3.663115	2.14845	1.56439	2.567995	-1.081323	2.155693	0.906085	1.317011	1.420369	2.182227	1.426003	2.483114	1.365888	2.212156	1.883054	2.438409
3.573609	1.916454	1.342666	2.428479	-0.915252	2.054772	0.747529	1.198747	0.688483	1.224933	0.279575	1.57937	0.817452	1.772489	1.45359	1.986033
3.18302	1.809395	0.875698	2.268353	-0.642592	2.311769	1.07131	1.443777	1.183834	1.763808	0.839025	2.125472	1.86068	2.572774	2.203218	2.67577
3.486487	2.10509	1.04091	2.49945	-0.832393	2.134216	0.898568	1.308011	1.214573	1.839951	1.00176	2.148577	0.945356	1.997398	1.614803	2.177185
2.68732	1.448289	0.544574	2.12858	-1.160751	2.067921	0.816106	1.215804	1.247786	1.726283	1.025906	2.117522	1.425909	2.396103	2.133499	2.522734
3.609171	2.363298	1.130906	2.688494	-0.79127	2.433749	1.348705	1.702743	1.539019	2.158878	1.462901	2.476507	1.946664	2.765622	2.552888	2.951653
3.091192	1.913065	0.799026	2.407394	-1.416779	1.890331	0.703854	1.018587	1.220792	1.791155	1.088253	2.220635	2.159673	2.866609	2.701428	3.079303
3.054762	1.857702	0.681765	2.407394	-1.601337	1.832581	0.47722	0.816098	0.847308	1.398389	0.689829	1.832198	2.041411	2.707315	2.502805	2.929398
2.513082	1.537839	0.355516	2.216715	-1.555037	1.911224	0.582635	0.965921	0.584488	1.127777	0.322756	1.52454	0.923741	1.790908	1.62419	2.079719
3.591531	2.357133	1.151147	2.678423	-1.693647	1.85534	0.589734	1.009948	0.532566	1.041621	0.266776	1.420377	0.324674	1.423377	1.19304	1.752082
2.868133	1.646022	0.966401	2.378328	-1.693213	1.679588	0.296946	0.735248	0.318812	0.78786	-0.22503	1.112658	0.264782	1.326749	1.080408	1.585842
3.860442	2.25985	1.750331	2.708609	-1.504936	1.801487	0.514696	1.014705	0.427883	0.989214	-0.04866	1.241694	0.116121	1.253506	0.983645	1.48964
3.789381	2.126574	1.559659	2.469661	-1.268484	1.867646	0.559276	0.970777	0.551014	1.031469	0.159339	1.446824	0.273552	1.344726	1.006364	1.491621
3.217032	1.509175	0.947355	2.113618	-0.871746	2.090419	0.906085	1.211126	1.103893	1.732421	0.987836	2.061154	0.093554	1.206267	0.915329	1.473068
2.508187	0.864194	0.288186	1.727782	-1.110377	1.727659	0.500765	0.854011	0.57485	1.040311	0.101526	1.395767	0.914834	1.742209	1.603616	2.044864
2.560899	0.914915	0.118471	1.727782	-0.860574	2.060185	0.981024	1.280416	0.870656	1.237876	0.556647	1.62532	0.693472	1.627663	1.383296	1.794511
2.095561	0.632889	-0.089045	1.589549	-1.046748	1.972056	0.913649	1.25001	1.511373	1.963467	1.417078	2.287942	1.179738	1.90311	1.81968	2.08782
2.9186	1.349527	0.564129	2.038525	-1.369746	1.793413	0.650493	1.028052	1.049809	1.529651	0.928978	1.878628	1.539828	2.130768	2.109276	2.389708
2.163342	0.61892	0.171695	1.710247	-1.740468	1.57064	0.378572	0.743541	1.194955	1.716937	1.167483	2.10763	0.984997	1.73989	1.526111	1.93758
2.095561	0.497376	0.080903	1.62229	-1.856493	1.412833	0.0808300000000001	0.43483	0.965319	1.433727	0.857449	1.852367	1.45641	2.078283	2.030522	2.326683
1.844644	0.423123	0.0109	1.627613	-1.740623	1.475319	0.116851	0.50036	0.616228	1.041621	0.372394	1.496321	1.058367	1.814086	1.691992	2.070597
2.47041	0.835453	0.448851	1.925112	-1.438417	1.785564	0.463405	0.845667	0.734734	1.215122	0.555391	1.622968	0.986645	1.679577	1.537508	1.87411
2.481662	0.924184	0.739285	1.972793	-1.249393	1.972056	0.711045	1.06322	0.851392	1.301534	0.695905	1.74948	1.190229	1.839944	1.75293	2.083405
3.429409	1.509175	1.44725	2.283347	-1.501811	1.659327	0.24881	0.629964	1.195934	1.701666	1.152648	2.130771	1.2025	1.984875	1.785235	2.232212
3.447663	1.690547	1.268165	2.283347	-0.678226	2.367659	1.12456	1.37691	0.581249	1.054712	0.258805	1.445814	1.721709	2.407824	2.32779	2.620666
2.592617	0.994264	0.593269	1.939059	-0.817927	1.946051	0.512365	0.904664	1.276616	1.89379	1.244741	2.240367	0.287691	1.409598	1.084189	1.638493
2.845626	1.412159	0.585909	2.038525	-0.624777	2.204566	1.0109	1.189252	0.776419	1.265927	0.329637	1.49905	1.913866	2.575377	2.485204	2.764032
2.740032	1.23165	0.474349	1.979833	-0.790296	2.270142	1.026076	1.237067	1.300089	1.747577	1.053643	2.042192	1.395347	2.248178	2.086311	2.495103
3.091192	1.611529	0.615282	2.165319	-1.601868	1.599372	0.222255	0.50036	1.039961	1.455161	0.736486	1.704629	1.630609	2.373614	2.215124	2.560701
2.518404	0.806655	0.289995	1.789532	-1.810474	1.478658	0.048666	0.394979	1.712119	2.277364	1.699707	2.523359	2.477559	3.036841	2.889968	3.176843
2.891447	1.299712	0.613489	2.015923	-1.138711	2.215125	1.003775	1.254629	0.925669	1.509904	0.699278	1.703574	1.098256	1.879046	1.774461	2.155811
2.747628	1.067397	0.431631	1.957017	-1.716982	1.586487	0.279625	0.585394	1.306265	1.996425	1.312807	2.161825	1.557889	2.217498	2.091284	2.413957
2.710601	1.225986	0.562403	1.977433	-1.531057	1.742772	0.446674	0.787817	0.661134	1.215434	0.179677	1.36998	2.172494	2.650841	2.627193	2.833316
2.545358	0.806655	0.511009	1.877705	-1.739963	1.478658	0.160659	0.530692	1.042095	1.666697	0.791675	1.805123	2.413072	2.847433	2.9245	3.159737
2.976205	1.135094	1.183541	2.143189	-1.108121	2.137751	1.003775	1.306859	0.951007	1.562706	0.822579	1.833512	1.799848	2.420151	2.329086	2.669659
4.079768	1.998915	1.967125	2.669276	-1.219714	1.937383	0.641717	0.987949	0.687044	1.220171	0.351098	1.473209	1.067637	1.846555	1.620398	1.959965
3.862164	1.971483	1.670441	2.540304	-0.589095	2.28079	0.996155	1.254629	1.154813	1.752963	1.122743	2.090594	1.802608	2.412377	2.229394	2.622352
3.644727	1.824588	1.451041	2.512385	-0.425112	2.269259	0.943736	1.228765	1.063858	1.671071	0.932251	1.938076	2.442443	2.87487	2.78961	3.108629
3.021129	1.509175	0.920517	2.284859	-1.060939	1.795702	0.341097	0.615878	1.32781	1.922035	1.42007	2.298827	1.833284	2.446425	2.193583	2.592525
2.597824	1.051243	0.651688	2.049805	-1.437558	1.478658	-0.0196010000000001	0.297218	0.975555	1.387604	0.78233	1.680327	1.50816	2.176018	1.912585	2.364849
2.555553	1.118332	0.542148	1.988814	-1.671175	1.436372	0.011393	0.425309	1.446944	1.937884	1.580991	2.321463	1.836925	2.50733	2.174351	2.658533
2.78457	1.163574	0.717148	2.086102	-1.255275	2.041014	0.77866	1.049933	1.184715	1.622606	1.101138	1.935005	2.322998	2.710797	2.570046	2.921854
2.981655	1.299712	0.821292	2.194799	-1.462549	1.843158	0.493851	0.793293	1.098805	1.709682	1.092464	1.934261	3.024667	3.270381	3.12836	3.360846
2.743641	1.243147	0.734687	2.143189	-1.460531	1.762924	0.371753	0.696596	1.333569	2.045818	1.43832	2.23935	1.977479	2.51293	2.417843	2.632149
2.578001	1.140901	0.798994	2.252269	-1.621124	1.626415	0.098849	0.516415	1.067857	1.633099	0.839025	1.859436	2.301234	2.679466	2.574347	2.803692
3.899783	2.361181	1.798071	2.937211	-1.200297	2.037765	0.598878	0.97217	1.070942	1.629137	0.937003	1.908406	1.435971	2.023402	1.755024	2.037934
3.519617	1.25532	1.724867	2.639172	-1.384409	1.90258	0.416076	0.779504	0.81059	1.306722	0.629086	1.702059	1.517705	2.217498	1.969017	2.185335
4.197982	1.861202	2.045042	2.847585	-1.105793	2.103564	0.643349	1.002501	0.633877	1.219633	0.479559	1.574642	2.092933	2.555328	2.338443	2.628603
4.192273	1.777905	1.795323	2.69928	-0.622467	2.314441	1.03317	1.340471	0.813287	1.356736	0.777001	1.725801	1.396066	2.072031	1.763439	2.173468
3.418456	1.146578	1.218411	2.346641	-0.489609	2.217438	1.010717	1.267178	0.841963	1.192246	0.521924	1.470968	1.929467	2.53217	2.166427	2.577944
2.687186	0.817944	0.656017	2.063359	-0.889991	1.785754	0.744384	0.876079	1.077326	1.346746	0.847889	1.622968	1.747995	2.277128	2.060718	2.327742
2.127486	0.144575	0.045345	1.583097	-1.558249	1.350683	0.238117	0.419358	1.196921	1.445654	0.986183	1.696415	1.304762	1.914758	1.711648	1.975862
2.179018	0.234557	0.140382	1.595207	-1.559485	1.582983	0.64069	0.720244	1.086271	1.342245	0.821843	1.518663	1.304762	1.980645	1.81759	2.02581
2.010426	-0.166608	-0.100839	1.285579	-1.765106	1.254	0.400583	0.52081	0.627628	0.924477	0.295468	1.165868	2.267251	2.605033	2.538202	2.665849
2.21549	0.397241	0.055325	1.541899	-1.810766	1.304214	0.383346	0.572843	0.688944	1.045723	0.351777	1.291877	2.988885	3.091059	3.132138	3.254409
2.519924	0.808558	0.287684	1.810198	-2.063223	1.112249	0.16445	0.375246	0.862591	1.409585	0.687297	1.568731	1.796804	2.221475	2.241871	2.348693
2.744692	1.066216	0.441219	1.926524	-1.902252	1.181026	0.182416	0.470922	0.376004	0.905079	-0.053211	1.065061	1.538032	2.007721	1.895753	2.094669
3.077078	1.234414	0.72418	2.072324	-1.902563	1.309223	0.255804	0.46412	0.078077	0.523301	-0.43737	0.758997	1.823874	2.316184	2.186233	2.344304
2.968013	1.031981	1.018991	2.054421	-1.695797	1.469948	0.439761	0.604816	0.396447	0.68947	0.021632	1.114595	1.646991	2.279044	2.121182	2.369103
3.110625	0.58487	1.072786	1.929255	-1.78752	1.295719	0.207619	0.368201	0.158386	0.359667	-0.447603	0.80906	0.980138	1.799328	1.588022	1.844995
2.813235	0.456387	0.911954	1.943546	-1.439247	1.469948	0.459793	0.531168	0.621075	0.893184	0.287881	1.393125	0.864718	1.650087	1.349613	1.718308
2.749517	0.373681	0.586613	1.839826	-1.37021	1.277141	0.109532	0.175475	0.644718	0.991189	0.351087	1.444029	1.448291	2.150482	1.885047	2.236326
2.415807	-0.00236599999999999	0.240294	1.675859	-1.350109	1.226717	0.170743	0.234829	0.502434	0.775803	0.280711	1.266489	0.717739	1.503267	1.242802	1.547946
2.230604	-0.214214	0.005335	1.503956	-1.558249	1.194763	0.140164	0.293951	0.704773	0.909084	0.414705	1.342388	1.367396	1.97875	1.757937	2.048381
2.415807	0.196327	0.124942	1.548992	-1.582378	1.394879	0.366094	0.441371	0.438461	0.541581	-0.025222	1.012071	1.876139	2.331512	2.241871	2.402612
2.148585	-0.246649	-0.170161	1.331504	-1.925201	1.14476	0.0602849999999999	0.190399	0.477586	0.649163	0.168663	1.216018	1.707364	2.227479	2.187052	2.340425
2.245491	-0.031604	0.034416	1.504021	-1.833818	1.272281	0.140164	0.264458	0.710901	1.020235	0.421898	1.468469	1.477057	2.097444	2.040345	2.244244
2.849713	0.353663	0.372017	1.807846	-1.87967	1.15378	-0.0071699999999999	0.160525	0.505926	0.823021	0.217984	1.317104	1.627124	2.106147	2.176318	2.315184
2.523887	0.191443	0.346426	1.746858	-1.902563	1.15378	-0.0439339999999999	0.160525	0.271647	0.592213	-0.240864	0.986972	1.429691	1.949888	1.970997	2.111798
2.829386	0.251092	0.653684	1.856954	-1.856918	1.226717	0.0970759999999999	0.301663	0.23725	0.536109	-0.307874	0.934514	1.189993	1.856373	1.809502	2.065614
3.272093	0.552165	1.344	2.041635	-1.741515	1.368143	0.20127	0.264458	0.383315	0.731733	-0.016643	1.138913	0.975261	1.726636	1.559241	1.93488
3.149376	-0.019284	0.996358	1.799311	-1.44082	1.381521	0.329303	0.264382	0.381463	0.656743	-0.031524	1.087813	1.176186	1.988184	1.711648	2.18194
3.276216	0.329888	0.974601	1.986642	-1.002355	1.481185	0.359595	0.352822	0.643149	0.944607	0.450032	1.44455	1.144624	2.016967	1.776803	2.277726
2.289829	-0.337237	0.067178	1.508052	-0.867595	1.580463	0.567024	0.49967	0.053793	0.254419	-0.496992	0.652939	1.748884	2.490108	2.360038	2.814231
2.333942	-0.327458	0.05745	1.512123	-1.467243	1.186152	0.176196	0.110343	0.490411	0.526918	-0.05504	0.985705	1.577539	2.329588	2.248464	2.660267
1.298385	-1.437692	-0.651853	0.946563	-1.650993	1.240484	0.21282	0.161814	1.017763	1.062354	0.70513	1.444368	0.417632	1.582619	1.264004	1.847452
2.437502	-0.223677	0.171972	1.557245	-2.24425	0.724176	-0.342584	-0.352455	0.760289	0.905079	0.428834	1.190279	1.587902	2.357217	2.212865	2.668166
1.569085	-1.179759	-0.388605	1.141686	-1.742329	1.344665	0.463335	0.396869	0.614625	0.858131	0.146074	1.11395	1.355616	2.13746	1.934249	2.451709
2.749517	0.127727	0.303725	1.755394	-1.947878	1.15858	0.0908949999999999	0.168506	0.589397	0.976123	0.365463	1.266439	1.828963	2.488379	2.493911	2.846801
1.596504	-0.803008	-0.318238	1.281029	-1.719474	1.417467	0.43315	0.463354	0.125803	0.404691	-0.431997	0.605836	0.617537	1.650759	1.341988	1.869268
2.415807	0.118837	0.549464	1.842247	-2.017448	1.176609	0.133895	0.160828	0.647876	1.039218	0.435884	1.266489	1.095118	2.041315	1.768942	2.311668
2.424624	-0.094765	0.569097	1.612135	-1.833917	1.381521	0.305411	0.434477	0.527457	0.878371	0.238473	1.139453	0.983743	1.940372	1.728305	2.171479
3.66256	1.191996	1.462749	2.114935	-1.995858	1.117055	-0.062683	0.108487	-0.00548	0.412322	-0.523603	0.602112	1.073887	1.967109	1.722751	2.1833
2.42246	0.112206	0.532588	1.442287	-1.509118	1.322706	0.220413	0.398616	0.025269	0.384101	-0.507859	0.602715	0.763051	1.648049	1.32517	1.869268
2.919213	0.58998	0.740098	1.750202	-1.094776	1.573435	0.459793	0.570094	0.0738	0.438443	-0.478063	0.676347	1.346023	2.090991	1.833784	2.253126
2.187047	-0.228744	0.155942	1.318913	-0.801446	2.040362	1.173806	1.134084	0.659653	0.965791	0.294001	1.164263	1.315919	2.059413	1.874344	2.282094
2.252906	-0.15821	0.203306	1.347674	-1.741952	1.139958	0.146465	0.205156	0.655255	0.890732	0.258124	1.138482	1.527042	2.152156	2.01524	2.419009
1.706835	-1.087733	-0.321386	0.935377	-1.673481	1.295016	0.311896	0.473833	1.013265	1.27546	0.747778	1.52193	1.57791	2.241523	1.999814	2.37796
2.614398	-0.036756	0.409667	1.425861	-1.604804	1.509379	0.601206	0.601708	0.605149	0.942306	0.230347	1.087443	1.466465	2.082489	1.939494	2.269368
1.964219	-0.84388	0.123831	1.232732	-1.467527	1.672845	0.742653	0.796184	0.605149	1.007091	0.336852	1.189873	0.407592	1.279449	0.998106	1.479723
2.363833	-0.138766	0.469371	1.417685	-1.764955	1.304214	0.263933	0.370385	0.544505	0.890732	0.102215	1.087335	1.677296	2.187869	2.081121	2.517749
2.26062	-0.318813	0.483365	1.363946	-1.443296	1.631304	0.698482	0.779909	0.07168	0.303571	-0.727654	0.417818	0.524224	1.285683	1.024368	1.459455
2.560899	0.019381	0.83943	1.41344	-1.856956	1.249515	0.331548	0.414971	0.772413	1.183738	0.529446	1.395767	1.156762	1.865532	1.651587	2.1342
2.613666	-0.178825	0.758171	1.235998	-1.601868	1.454785	0.577929	0.587553	0.298305	0.599734	-0.338373	0.802247	0.546177	1.431126	1.109242	1.58475
3.311896	0.623253	1.11259	1.614716	-1.229026	1.560438	0.696698	0.686077	0.296478	0.599734	-0.316941	0.828322	1.125129	1.76346	1.460063	1.993191
2.119309	-0.304044	0.309584	1.060827	-1.138711	1.518842	0.689577	0.65588	0.853367	1.14234	0.41636	1.319496	1.426265	1.985087	1.930735	2.327708
2.319121	0.104673	0.557161	1.291517	-1.395998	1.317718	0.355402	0.384941	0.439846	0.575412	-0.210938	0.801938	2.06482	2.52911	2.387815	2.829654
2.119309	-0.156801	0.283004	1.151756	-1.489681	1.426748	0.698482	0.631775	0.912891	1.015854	0.358936	1.112573	1.364457	2.029596	1.883054	2.311141
2.467837	0.0565280000000001	0.522751	1.266155	-1.765001	1.208478	0.392419	0.348047	1.034768	1.160659	0.787608	1.44738	1.669303	2.139994	2.060718	2.55163
2.140811	-0.414671	0.300268	1.084249	-1.90274	1.081126	0.311896	0.227818	0.775076	0.927663	0.521924	1.241192	2.092933	2.468284	2.36189	2.786855
2.829386	0.157231	0.654784	1.327002	-1.787946	1.14476	0.385788	0.370385	0.65818	0.89515	0.571679	1.266882	1.112942	1.726774	1.454105	2.079681
2.133173	-0.743069	0.296428	0.985044	-1.880067	1.021256	0.263933	0.228237	0.502793	0.640766	0.035297	0.983434	1.132591	1.787657	1.593779	2.137426
2.465346	-0.477131	0.730415	1.149611	-1.648557	1.16283	0.503639	0.438416	0.502793	0.669204	0.08567	0.983581	1.416496	1.892336	1.836778	2.33209
2.661727	-0.65593	0.934751	1.141686	-1.6703	1.094119	0.412511	0.288577	0.764605	0.992393	0.366032	1.216031	1.132591	1.658267	1.523891	2.079681
2.740032	-0.614273	0.965637	1.125911	-1.390255	1.00718	0.270468	0.14543	0.882563	1.020545	0.62515	1.448598	1.122028	1.623929	1.448146	2.042196
2.178193	-1.129831	0.364063	0.834173	-1.297539	1.016133	0.277038	0.130431	0.674423	0.893929	0.423924	1.241927	0.847688	1.393644	1.150514	1.689478
2.372256	-0.724256	0.400934	0.940953	-1.300797	1.085101	0.301035	0.17557	0.792543	0.865667	0.40983	1.267838	0.908216	1.52611	1.150514	1.784969
2.163347	-0.89044	0.320797	0.904717	-1.510422	1.14903	0.375324	0.235911	1.237239	1.390252	1.077637	1.679796	1.324167	1.782754	1.471259	1.987262
2.869996	-0.168803	0.821992	1.323456	-1.879992	0.838908	0.0111519999999998	-0.035027	1.238767	1.291721	1.053643	1.67876	2.107438	2.431413	2.272369	2.668166
2.365755	-0.576132	0.627819	1.191224	-1.580402	1.281469	0.436184	0.333424	0.797548	0.945745	0.566233	1.267179	2.138173	2.397718	2.156547	2.564722
2.502554	-0.358314	0.690016	1.264828	-1.695258	1.203887	0.473315	0.288577	0.917428	1.095259	0.744485	1.472597	1.749917	2.078283	1.955238	2.340082
1.891422	-1.168197	0.243696	0.901055	-1.764451	1.085101	0.331548	0.288577	0.800095	1.062594	0.708197	1.421065	1.79869	2.118407	1.936039	2.278264
2.534343	-0.567975	0.780373	1.235998	-1.69461	1.171912	0.473315	0.341194	0.85937	1.062594	0.558539	1.369781	1.426265	1.858318	1.605293	2.117105
2.449612	-0.963983	0.766861	1.055556	-1.693854	1.108026	0.36865	0.280855	0.768475	1.03459	0.609375	1.421567	1.144624	1.571536	1.361829	1.878111
2.508187	-0.553859	0.934154	1.216834	-1.576141	0.943293	-0.00733899999999998	-0.012864	0.679959	0.815124	0.415914	1.292831	1.132591	1.629247	1.302512	1.851553
2.125994	-0.629165	0.566468	1.066134	-1.275252	0.980505	0.152798	0.100287	0.677177	0.819526	0.41636	1.292964	1.173357	1.631915	1.267657	1.889227
2.252702	-0.382299	0.379276	1.066134	-1.601868	0.720352	-0.161414	-0.177719	0.944268	0.969281	0.688971	1.498384	1.091754	1.597628	1.302512	1.918057
1.932128	-0.684729	0.038355	0.840081	-1.603709	0.890723	-0.00109399999999993	-0.00444	1.033753	1.123198	0.789051	1.626615	0.940669	1.474229	1.128484	1.745335
1.969734	-0.516653	0.123654	0.889532	-1.85689	0.922404	0.0357529999999999	0.025478	0.920914	1.076577	0.665188	1.548208	1.153676	1.542843	1.169601	1.687897
2.073851	-0.379389	0.288955	1.016812	-1.764955	1.103986	0.177068	0.107886	0.803975	1.136923	0.614515	1.420164	1.276546	1.716039	1.33946	1.847353
1.908856	-0.349864	0.214686	1.016812	-1.489111	1.36303	0.587432	0.459439	0.570121	0.890732	0.236909	1.164306	1.706883	1.945117	1.714679	2.148196
1.757097	-0.535146	0.156336	0.954211	-1.695107	1.226717	0.233339	0.303282	0.482017	0.765319	0.172838	1.087682	1.487607	1.817612	1.570745	2.053888
2.914955	0.675312	1.17417	1.598101	-2.111364	0.870736	-0.093556	-0.042364	0.509222	0.834546	0.079508	1.087443	1.487607	1.913845	1.789426	2.250862
2.645617	0.027382	0.939163	1.294798	-1.46293	1.499949	0.705523	0.812568	0.747571	1.058263	0.493108	1.368237	0.758496	1.404024	1.132488	1.619094
3.804352	1.185736	1.528673	1.908984	-1.647439	1.112933	0.244522	0.384941	0.978832	1.427728	0.935244	1.699271	1.28945	1.765675	1.616888	2.116818
2.719377	0.479961	0.704075	1.253446	-1.204975	1.140674	0.335779	0.399473	0.444805	0.736061	-0.035727	1.010779	2.120952	2.318215	2.411052	2.760001
2.230448	0.0571390000000001	0.321978	1.229609	-0.833363	1.529938	0.951621	0.757966	0.972351	1.265927	0.702574	1.574642	1.506996	2.00012	1.90953	2.496912
1.728583	-0.485538	-0.263499	1.029387	-1.299201	1.213121	0.557286	0.370385	1.621959	1.910139	1.642389	2.1867	0.74316	1.478146	1.306829	1.926841
2.740032	0.720164	0.510315	1.562511	-1.764628	0.968302	0.262168	0.137947	0.920914	1.169105	0.51553	1.292197	1.13123	1.695504	1.570754	2.030668
1.470877	-0.595248	-0.296067	0.855356	-1.833916	1.09507	0.298959	0.294493	0.83803	1.164502	0.52888	1.317518	2.443555	2.590859	2.652876	2.971663
2.682539	0.641692	0.441553	1.426073	-1.833779	1.136769	0.467166	0.375246	0.755986	1.063551	0.49973	1.317303	2.557485	2.65503	2.814777	3.030582
1.646952	-0.556928	-0.195354	0.902645	-2.064668	0.971675	0.231745	0.23486	0.900623	1.316197	0.726449	1.546633	2.324761	2.432858	2.643726	2.858577
2.603722	0.463602	0.661888	1.430599	-2.249608	0.766717	-0.0866020000000001	-0.025412	0.547746	0.896893	0.208669	1.164306	1.277753	1.726636	1.801973	2.04266
2.702534	0.35989	0.76688	1.292464	-2.134661	1.003482	0.15819	0.279424	0.253933	0.591494	-0.184068	0.830902	1.186681	1.619467	1.715616	2.016653
3.086544	0.347415	0.986381	1.246215	-1.972725	0.994641	0.219096	0.294155	-0.162292	0.170794	-0.810656	0.392276	2.523477	2.677294	2.818888	2.958019
2.262421	-0.496449	0.330242	0.852138	-1.833627	0.885084	0.0847470000000001	0.138184	0.036542	0.490108	-0.56246	0.570787	1.856844	2.162498	2.196127	2.488068
2.634667	0.331988	0.664274	1.25938	-1.415935	0.948677	0.017452	0.219938	0.624852	1.048679	0.301078	1.266972	0.964504	1.479993	1.454105	1.847353
1.757097	-0.2673	-0.047841	0.828513	-0.958116	1.503699	0.730452	0.805189	0.623374	0.927663	0.258008	1.189902	1.295239	1.795059	1.693196	2.105439
2.00521	-0.04057	0.091589	0.995492	-1.856966	0.798462	-0.190708	-0.070447	0.444805	0.591478	-0.044907	0.906346	1.355057	1.853544	1.752436	2.117105
1.354922	-0.804053	-0.382357	0.612755	-1.87967	0.890723	0.029976	0.153175	0.186691	0.453827	-0.266387	0.727035	1.638819	2.078283	2.010096	2.298792
2.592617	0.555276	0.505418	1.330164	-2.429569	0.427043	-0.592057	-0.33707	-0.073984	0.081099	-0.762936	0.417818	1.446139	1.912471	1.776803	2.091399
1.776841	-0.238791	5.69999999999737E-05	0.977235	-2.131806	0.836024	-0.104215	0.026721	0.168057	0.535005	-0.20536	0.882635	1.748884	2.02122	1.879695	2.20024
2.888193	0.972115	0.816759	1.674579	-1.833896	1.263125	0.225404	0.376423	0.343652	0.720375	0.180102	1.189873	1.886892	2.128919	2.01639	2.308027
2.519349	0.53807	0.606261	1.490644	-1.78797	1.276713	0.383346	0.516871	0.040821	0.400717	-0.503855	0.726187	2.234505	2.451706	2.390125	2.663412
2.95407	0.821938	1.024456	1.659569	-2.065025	1.117055	-0.0071699999999999	0.205156	0.157913	0.648183	-0.114997	0.932504	1.357126	1.836475	1.767192	2.091064
3.100351	0.50117	1.135315	1.478401	-2.158686	1.048151	-0.0318620000000001	0.190265	0.27313	0.717389	-0.130054	1.009616	1.796804	2.191932	2.096442	2.344942
3.465433	0.799817	1.140848	1.612329	-1.717514	1.299939	0.244522	0.354931	-0.058696	0.387693	-0.610119	0.594887	2.484454	2.705996	2.569371	2.843144
2.262421	-0.068361	0.377504	1.070138	-1.578888	1.139958	0.0970759999999999	0.287351	0.267527	0.725952	-0.160249	0.957822	2.537601	2.744659	2.557036	2.946361
3.110625	0.985072	0.893567	1.62229	-1.304722	1.426748	0.426571	0.614151	0.501203	1.006544	0.113715	1.164189	2.084451	2.421975	2.186233	2.622201
2.412346	0.460331	0.439482	1.363578	-1.193282	1.784476	0.86354	0.946232	0.536521	0.867059	0.114074	1.035586	2.179153	2.509862	2.415709	2.725811
2.68732	0.741409	0.768345	1.596511	-1.810897	1.244906	0.21282	0.413128	0.659653	1.067373	0.45109	1.292197	2.142048	2.538398	2.401748	2.665445
2.035033	0.259658	0.397587	1.233984	-2.016662	0.977051	0.029976	0.160525	0.600503	0.988203	0.193534	1.2668	2.557485	2.737657	2.748747	3.044354
2.459732	0.51063	0.49562	1.359501	-1.673843	1.408216	0.443628	0.658093	0.811934	1.367828	0.798396	1.648933	1.706883	2.166687	2.077099	2.455335
1.767868	-0.0886750000000001	0.021674	1.128759	-1.787994	1.299396	0.243172	0.42846	0.606711	1.160017	0.479125	1.470968	1.736838	2.068194	2.071936	2.483875
2.321994	0.434642	0.387548	1.426073	-2.038753	1.005331	-0.0183060000000002	0.153175	0.282591	0.765319	-0.049684	1.164228	0.902052	1.534358	1.519613	1.879181
2.012142	0.0985090000000001	0.194659	1.19654	-2.452907	0.663166	-0.514032	-0.204749	0.280687	0.737139	0.057432	1.215515	1.736029	2.14394	2.171834	2.5245
2.582702	0.268287	0.80769	1.342694	-1.971628	1.258537	0.243172	0.383357	0.168057	0.595481	-0.12014	1.036489	1.517899	2.012331	2.122013	2.520539
2.764128	0.0395500000000001	0.925928	1.246691	-2.364056	0.732625	-0.42088	-0.150972	0.014277	0.328415	-0.525249	0.779036	1.696477	2.079329	2.16169	2.455335
2.666493	-0.0701040000000002	0.821457	1.163947	-1.649145	1.2041	0.21282	0.323871	0.168057	0.555406	-0.226641	0.934798	1.286914	1.872805	1.877016	2.245857
1.757097	-0.485538	0.295132	0.926699	-1.602844	1.15858	0.011415	0.20507	0.393868	0.85393	0.24373	1.343428	1.447046	1.967109	2.021597	2.303329
2.58207	0.107705	0.544574	1.313737	-1.442624	1.331203	0.188669	0.41398	0.480358	0.830192	0.236523	1.266659	1.607259	1.998585	2.021597	2.33209
2.223237	0.227206	0.315667	1.251164	-1.400224	1.574709	0.473693	0.606292	0.801381	1.239357	0.759297	1.599216	1.527042	1.991805	2.116128	2.410268
1.847592	-0.159063	0.027493	0.984723	-1.92464	1.294764	0.133466	0.23486	0.624852	0.936659	0.401801	1.369406	1.486689	2.019021	2.030682	2.364909
1.795167	-0.297094	-0.010118	0.926699	-2.223098	0.954107	-0.227333	-0.034339	0.311268	0.542914	0.015381	1.011179	2.06482	2.372611	2.467599	2.831386
2.788597	0.542181	0.735771	1.51749	-2.154329	0.999963	-0.233043	0.018133	0.311268	0.672311	0.272494	1.240997	2.120952	2.316334	2.450741	2.775597
2.727074	0.86288	0.816759	1.580919	-2.016662	1.036909	-0.110025	0.137947	0.13326	0.522511	-0.05715	1.113025	2.40956	2.608067	2.748747	3.044354
2.507928	0.497376	0.565687	1.409741	-1.971628	1.117888	-0.0311599999999999	0.16031	0.215487	0.599734	0.027905	1.189877	2.484454	2.645758	2.761413	3.074241
2.71933	0.748347	0.743849	1.506454	-1.856941	1.254	0.121454	0.31027	0.217435	0.623991	0.207792	1.241192	1.857977	2.223468	2.16618	2.553498
2.406021	0.09157	0.49017	1.275623	-1.833821	1.15378	0.0235210000000001	0.280241	0.454904	0.830192	0.465557	1.445582	2.509518	2.672899	2.849936	3.058256
2.736221	0.322263	1.103421	1.426744	-1.996404	1.00718	-0.204182	0.100287	0.919743	1.397637	1.010326	1.855442	1.999591	2.349823	2.366588	2.657526
2.790591	-0.027444	0.988217	1.305049	-1.529234	1.450988	0.392419	0.65588	0.592898	1.006544	0.366032	1.39511	1.741311	2.239626	2.222521	2.498295
3.627931	1.079647	1.569567	1.7778	-1.62178	1.112249	-0.155462	0.160628	0.944268	1.456052	0.999396	1.908406	1.324167	1.951098	1.828385	2.236326
2.743641	0.423123	0.743881	1.309217	-0.784278	1.852842	0.749784	0.967181	0.854553	1.367581	0.920987	1.780502	1.425811	1.982863	1.833784	2.302753
3.770947	1.569647	1.365164	1.907131	-1.231408	1.509379	0.348828	0.55917	0.645246	1.062929	0.562083	1.473209	1.751096	2.307106	2.126172	2.559661
2.278015	0.141817	0.443917	1.221258	-1.257933	1.736901	0.661437	0.867663	0.642451	1.039543	0.468827	1.319114	2.178174	2.631002	2.458521	2.845053
3.555614	1.412159	1.204037	1.866133	-1.926104	1.240369	0.103288	0.318775	0.581102	0.926335	0.076533	1.112578	2.923338	3.244331	3.113978	3.531273
2.24962	0.04372	0.454425	1.233522	-1.60307	1.615085	0.564132	0.787817	0.380009	0.723699	-0.053137	0.931876	2.326781	2.755203	2.551649	3.041849
3.284008	1.140901	1.286145	1.890635	-1.926422	1.382849	0.159163	0.381818	0.972351	1.515557	0.992864	1.782944	2.017756	2.465054	2.302999	2.779089
3.153903	0.950743	0.930319	1.80295	-1.509784	1.763328	0.54077	0.807627	0.49962	1.054044	0.315908	1.293585	2.20891	2.596142	2.533763	2.918552
3.282371	1.291716	1.154349	1.922808	-1.555343	1.825436	0.554587	0.802373	-0.152219	0.325017	-0.61809	0.59438	2.552507	2.888322	2.790202	3.144616
2.319449	0.218128	0.605438	1.476789	-1.624375	1.715561	0.480126	0.802373	0.914013	1.493114	0.927583	1.886837	2.114113	2.533714	2.397101	2.752193
3.946716	1.686463	1.930851	2.305636	-1.622709	1.800481	0.531182	0.850271	0.706302	1.243102	0.611413	1.629444	1.781696	2.433057	2.090884	2.575703
3.152998	0.723539	1.375635	1.761328	-1.457398	1.875801	0.470295	0.889779	0.494912	1.097082	0.338	1.398202	2.248823	2.789769	2.608906	3.049943
4.196835	1.770616	1.98759	2.17728	-0.936095	2.139079	0.785966	1.24918	0.814715	1.363909	0.512514	1.712388	1.477326	2.207735	1.954019	2.327742
3.392732	1.224233	1.294896	1.920315	-0.243554	2.61004	1.332628	1.507842	1.016939	1.384633	0.885461	2.010021	2.594466	3.150319	2.853836	3.233521
3.337674	1.426589	1.267738	2.241382	-0.48774	2.401562	0.913639	0.967604	1.706347	2.169457	1.871092	2.842716	2.199219	2.922542	2.535804	3.011446
2.966125	0.994067	0.852889	2.057793	-0.540757	2.357317	1.049112	0.838681	1.706345	2.133846	1.915238	2.74392	2.424652	2.989625	2.6933	3.115428
3.114982	1.102018	1.028479	2.18676	-0.993877	2.081157	0.747529	0.505698	1.977838	2.336411	2.27891	2.951212	2.266807	2.887226	2.5595	3.011496
2.761621	0.551374	0.901536	1.964174	-1.233686	1.904471	0.535852	0.459514	1.434434	1.697984	1.437068	2.289693	2.907008	3.339406	3.123192	3.459663
3.432554	1.485398	1.510117	2.455917	-1.447625	1.737802	0.262292	0.320369	1.526021	2.077643	1.820808	2.520306	2.134721	2.747986	2.518796	2.787185
3.245439	1.293649	1.260109	2.180232	-1.329691	1.935602	0.519499	0.669078	1.195207	1.697984	1.248744	2.152057	2.821242	3.208126	2.954919	3.278564
3.828273	1.897721	1.583489	2.495515	-1.261502	1.904471	0.46058	0.660197	1.167338	1.713853	1.368733	2.306641	1.954046	2.524586	2.18877	2.54591
3.151674	1.126652	1.204535	2.125561	-0.931065	2.389854	1.056864	1.253402	0.80685	1.292318	0.801378	1.93828	2.571796	2.947554	2.713662	2.856295
4.242358	2.09141	2.05783	2.711117	-1.236061	2.079816	0.634489	0.933968	0.809056	1.309612	0.741803	1.883675	2.762761	3.110216	2.977172	3.048626
4.335378	2.145841	2.423554	2.793249	-1.113413	2.200603	0.754934	1.106507	1.527388	2.259557	1.798546	2.730767	2.960728	3.274126	3.131889	3.277478
4.842189	2.501387	2.819134	3.050346	-1.206278	2.222262	0.701502	1.007	1.078886	1.60344	1.106193	2.227469	2.032471	2.684465	2.498399	2.722737
4.400623	2.008824	2.41905	2.638983	-0.92146	2.422579	0.876034	1.278922	1.229479	1.821046	1.437633	2.513873	2.95437	3.274707	3.253343	3.321287
4.241463	2.093295	2.060991	2.607949	-0.665692	2.511341	1.10248	1.348808	1.050057	1.619709	1.033385	2.27707	2.548296	3.01403	2.849257	3.004515
3.629759	1.664881	1.386999	2.231286	-0.703259	2.346544	0.951095	1.232636	1.0797	1.67652	1.064735	2.250298	2.77165	3.180773	3.018527	3.217498
3.301879	1.643446	1.198502	2.120808	-0.901116	2.325906	0.951189	1.265764	1.204882	1.768779	1.430336	2.392607	2.486412	2.951495	2.821644	2.997597
3.790858	1.865921	1.389517	2.405885	-1.069364	2.348799	0.96623	1.317011	1.265101	1.78473	1.374045	2.364824	2.679501	2.989625	2.912431	3.027545
3.210801	1.569476	1.150799	2.163416	-1.302819	2.20833	0.951621	1.211126	0.917428	1.330475	0.884111	2.0188	2.310314	2.729554	2.640015	2.798781
3.735316	1.955658	1.562176	2.447915	-1.78752	1.750723	0.342287	0.743541	1.158527	1.637352	1.348825	2.423159	2.605417	2.988605	2.928364	2.945645
2.978833	1.268192	1.041463	2.097007	-1.764844	1.788488	0.346693	0.815337	0.65818	1.348027	0.652556	1.912845	2.891963	3.157241	2.998548	3.144616
3.248562	1.343915	1.056366	2.216715	-1.856966	1.775917	0.359595	0.826641	0.366869	0.94058	0.179318	1.602106	2.517491	2.864509	2.76718	2.829654
3.17407	1.281783	1.003212	2.194893	-1.741515	1.927268	0.500126	0.926731	0.748956	1.414687	0.757995	2.064627	2.12795	2.551269	2.464578	2.562799
3.809574	1.798553	1.476907	2.567995	-1.787436	1.870269	0.37919	0.855334	0.655255	1.380023	0.487631	1.964904	1.597882	2.187869	2.076018	2.169821
3.465877	1.444002	1.422661	2.497032	-1.37021	2.392738	0.96623	1.396904	1.123934	1.963546	1.22458	2.480439	1.697515	2.325762	2.061612	2.232598
3.429141	1.019939	1.605746	2.305636	-1.786667	1.900444	0.392419	0.867531	0.942085	1.746786	0.735128	2.152787	1.688279	2.381464	2.226204	2.352581
3.667287	1.084693	1.827375	2.193577	-1.528052	2.128645	0.68249	1.084472	1.146949	2.01363	0.931678	2.36222	2.683396	3.057353	2.920333	3.049297
4.32273	1.703702	2.0157	2.497032	-1.269138	2.183556	0.68249	1.071275	0.943173	1.762783	0.748641	2.228274	2.005897	2.631002	2.343126	2.503285
3.121263	0.775737	1.198961	2.035371	-1.36415	2.030712	0.510474	0.857732	1.297916	2.105366	1.357946	2.69014	1.85103	2.539977	2.291545	2.52254
3.342368	1.203734	1.224556	2.191409	-1.624115	1.815465	0.250959	0.631911	0.972351	1.661076	0.750183	2.229407	1.335727	2.128919	1.911822	2.229019
2.208137	0.508816	0.564261	1.766053	-1.926422	1.502157	-0.105529	0.346153	1.153905	1.782972	1.162103	2.425637	1.39564	2.253074	1.970997	2.249417
2.869996	1.310558	0.956369	2.106412	-1.833818	1.77187	0.230668	0.599538	0.775076	1.230312	0.573992	1.910582	1.050847	2.027855	1.744968	2.068083
2.492574	0.864194	0.632594	1.975086	-2.107529	1.494355	-0.0909769999999999	0.409483	0.57169	1.102059	0.344162	1.730512	1.99011	2.675821	2.560448	2.717955
3.290997	1.824588	1.238677	2.481001	-1.969286	1.574709	0.0191629999999998	0.579593	0.282591	0.845628	-0.050642	1.49905	2.40956	2.902243	2.818888	2.906383
2.440036	0.835453	0.551878	1.963696	-2.105288	1.584062	0.049434	0.527363	0.135323	0.731094	-0.332357	1.397033	2.557485	3.03188	2.967306	2.979224
2.797173	1.333251	0.907076	2.222663	-2.037716	1.676072	0.260179	0.74653	0.349237	1.19188	0.236909	1.781099	3.277531	3.478487	3.589131	3.491212
2.065791	0.647174	0.209459	1.842947	-2.198047	1.541397	-0.00537399999999999	0.544942	-0.081598	0.576331	-0.359864	1.215515	1.836505	2.460512	2.42503	2.488068
2.645617	1.232224	0.635798	2.210154	-2.177474	1.653772	0.084889	0.64638	0.005786	0.699582	-0.338686	1.241192	2.135105	2.71615	2.823004	2.885224
2.780721	1.339094	0.629868	2.227608	-1.994206	1.937286	0.460671	0.979349	0.093125	0.822566	-0.167443	1.420598	2.769225	3.320136	3.396922	3.398313
3.04985	1.597877	0.908286	2.417942	-2.291455	1.624708	0.0425819999999999	0.66041	0.288342	1.120384	-0.00597499999999999	1.576237	2.241307	3.036282	2.967306	3.109409
3.138767	1.806599	1.104991	2.477908	-2.658256	1.309223	-0.322719	0.351316	0.35111	1.199874	0.137473	1.703061	1.617348	2.500647	2.578309	2.585669
3.142416	1.253037	1.07551	2.260217	-2.45058	1.541397	-0.194169	0.486028	0.619452	1.450857	0.577412	2.005637	0.51235	1.683716	1.570745	1.702079
3.501819	1.142716	1.069659	2.072873	-2.060652	1.873228	0.254083	0.796184	0.334186	1.141624	0.181766	1.621909	0.665994	1.869013	1.81299	1.918088
4.213858	1.739002	1.323718	2.323676	-2.222331	1.53927	-0.138618	0.445018	0.184586	0.95569	-0.194618	1.39346	1.101064	2.119412	2.16618	2.114154
3.432537	1.400869	0.755587	2.00917	-1.536785	2.044691	0.50113	0.943861	0.818767	1.671071	0.761292	2.128279	0.754382	1.869013	1.847694	1.888029
3.168694	1.429259	0.520784	1.979833	-0.965528	2.322038	0.851145	1.249877	0.261747	1.03459	-0.083811	1.36848	0.591811	1.737325	1.616807	1.767661
2.9186	1.63398	0.431155	2.084066	-1.444252	1.835841	0.175826	0.713994	0.198678	0.893929	-0.222064	1.343568	1.158488	2.179426	2.04614	2.19074
2.155712	0.961822	-0.157252	1.71891	-1.262256	2.136669	0.573691	1.102958	0.170104	0.870205	-0.121362	1.420828	1.627751	2.609597	2.524899	2.594875
2.246916	1.121979	-0.014878	1.758769	-1.444557	2.024219	0.424212	1.119503	0.573266	1.19188	0.243638	1.786207	1.940706	2.895108	2.738261	2.912384
2.928187	1.572047	0.427675	2.171725	-1.810926	1.932978	0.21282	0.916863	0.542894	1.117138	0.207634	1.791923	2.102282	2.956652	2.773914	2.962778
2.908211	1.481758	0.454432	2.20088	-1.925327	1.967545	0.163849	0.833128	0.400954	1.060286	0.100344	1.611578	2.761539	3.440904	3.415997	3.535112
2.837979	1.456394	0.522751	2.13045	-2.016662	1.935099	0.133466	0.797161	0.051618	0.658386	-0.39484	1.29877	3.292098	3.762757	3.724263	3.884303
2.253695	0.921594	0.283004	1.869838	-2.35869	1.566641	-0.322719	0.422107	0.32262	1.189245	0.180102	1.638615	2.933713	3.379925	3.43878	3.540845
2.020079	0.481094	-0.100194	1.578761	-2.106918	1.92958	0.248496	0.843485	-0.022571	0.721973	-0.383103	1.217613	2.57904	3.092023	3.107894	3.311312
2.337556	0.891989	0.04338	1.722298	-2.128593	1.7303	0.151784	0.686077	-0.100321	0.653582	-0.328979	1.138468	2.292001	2.84576	2.88255	2.982464
1.989189	0.404603	-0.274945	1.471381	-2.13059	1.749565	0.13353	0.633751	0.368239	1.123198	0.35836	1.627063	1.276546	2.200145	1.992026	2.250862
2.379039	1.034086	0.270843	1.80295	-1.970493	1.870512	0.356332	0.861899	-0.015649	0.603894	-0.402195	1.112573	1.247909	2.204297	2.007813	2.361531
2.540516	1.063445	0.478817	1.943504	-1.948702	1.951797	0.417805	0.963749	0.292205	1.034758	0.022784	1.449955	0.888331	1.913845	1.720337	2.091064
2.540516	1.233499	0.794086	2.065326	-2.318171	1.666572	-0.00651000000000002	0.546823	0.35111	1.100736	0.166059	1.577973	0.448944	1.67674	1.298698	1.763305
2.685833	0.997202	0.871964	1.975516	-1.972461	2.056578	0.316449	0.838284	0.051618	0.717448	-0.321188	1.242341	0.926261	2.005427	1.725995	2.254264
3.374794	1.488076	1.475505	2.207197	-2.08899	1.870269	0.15819	0.75783	0.280687	1.016905	-0.064624	1.502069	1.137418	2.200145	1.846051	2.406129
3.284008	1.090119	1.388789	2.057793	-1.716982	2.012124	0.372626	0.850271	0.363283	1.189245	0.200553	1.684307	2.105075	2.871949	2.722069	3.210208
4.134322	1.924842	1.866568	2.459179	-1.320429	2.133248	0.610668	1.071031	0.563913	1.390895	0.337292	1.815193	2.090584	2.864509	2.769878	3.246729
3.770947	1.718304	1.458836	2.361379	-1.064114	2.177413	0.677566	1.031384	0.294657	1.041844	-0.038915	1.582411	1.446323	2.349823	2.03723	2.564722
3.127537	1.490432	1.001458	2.135857	-0.904738	2.221456	0.744384	1.027255	0.623374	1.35859	0.452625	1.915998	1.658006	2.44824	2.191251	2.697344
2.328487	0.786241	0.305403	1.634307	-1.418767	1.707983	0.273474	0.538743	0.623374	1.381346	0.596593	1.914402	1.67841	2.544765	2.15662	2.646932
2.418408	1.032739	0.246682	1.625706	-1.87986	1.462548	-0.000566000000000066	0.311902	0.621901	1.258495	0.467298	1.784874	2.263945	2.959866	2.600712	2.955214
2.035033	0.632629	-0.123626	1.413685	-2.040132	1.580463	0.243172	0.50036	0.441492	1.045334	-0.00292100000000001	1.346143	1.81927	2.544765	2.300012	2.644509
2.874777	1.709998	0.608712	1.977433	-2.085322	1.612312	0.236904	0.544942	0.887209	1.448052	0.561085	1.784221	1.891127	2.605033	2.446891	2.738938
2.797407	1.598386	0.55278	1.943205	-2.245895	1.535569	0.060467	0.401609	0.592898	1.230312	0.250861	1.526865	2.328445	3.021558	2.803893	3.072288
3.267392	2.126574	0.984955	2.341199	-2.039696	1.835841	0.370463	0.658067	0.363283	0.969013	-0.195737	1.216031	2.175254	2.860917	2.670963	3.05079
2.491772	1.317349	0.347347	1.863528	-2.155262	1.660036	0.206576	0.486028	0.598968	1.381346	0.329745	1.680327	1.728392	2.383259	2.126031	2.582174
3.069329	1.947383	0.803155	2.261651	-1.994703	1.756343	0.383346	0.699144	-0.047553	0.5605	-0.677453	0.905475	1.203593	2.057234	1.726162	2.188455
2.524176	1.271458	0.469063	1.943205	-2.225943	1.624708	0.0847470000000001	0.420382	-0.052027	0.606899	-0.586256	1.03476	1.316869	2.133175	1.754921	2.333023
3.248562	1.801031	1.069029	2.34247	-2.366696	1.392282	-0.099558	0.323478	0.478706	1.240658	0.265195	1.655956	1.277753	2.072628	1.799947	2.25602
3.028206	1.537097	1.107576	2.193075	-2.505972	1.299939	-0.184911	0.20764	0.357952	1.088734	0.07783	1.578895	1.126863	1.974074	1.642418	2.108242
4.40802	2.423526	2.102797	2.659966	-2.273327	1.394879	0.005409	0.312933	0.17492	0.883778	-0.321671	1.268517	1.359144	2.050426	1.84481	2.244488
3.880923	1.680327	1.597163	2.20758	-2.158907	1.372259	0.017452	0.351316	0.32366	0.96973	-0.132189	1.371619	1.637104	2.235589	2.204091	2.577638
3.215169	1.192692	0.970783	1.699352	-1.787436	1.444037	0.163849	0.454178	-0.236559	0.378447	-0.733801	0.775809	1.847179	2.425571	2.39288	2.754589
2.443847	1.130262	0.375714	1.533473	-1.625789	1.466512	0.273474	0.490838	0.267527	0.869468	-0.073965	1.241694	1.436448	2.196024	2.176908	2.575703
2.465346	0.972115	0.225134	1.525074	-1.398927	1.730445	0.586829	0.719869	0.3615	0.818024	0.035297	1.344036	0.960083	1.86795	1.858614	2.1152
1.921065	0.748882	-0.14922	1.38434	-2.039236	1.187063	-0.0662199999999999	0.093049	0.478706	0.883958	0.092517	1.36998	1.719471	2.44824	2.469196	2.806509
2.513082	1.163574	0.187899	1.678836	-2.129281	1.124296	-0.108115	0.145376	0.562378	0.907353	0.207545	1.473854	1.940706	2.579558	2.473817	2.85885
2.095715	0.879614	0.0593919999999999	1.459188	-2.152307	1.353372	0.0789029999999999	0.32568	0.443145	0.955044	0.05575	1.345421	1.628251	2.353505	2.290424	2.683942
2.432804	1.055297	0.199868	1.651591	-2.221938	1.421533	0.029976	0.342214	0.305675	0.746083	-0.014294	1.292964	1.828963	2.388693	2.374324	2.649599
2.702534	1.312134	0.498318	1.907131	-2.177136	1.535569	0.182416	0.43483	0.332652	0.950199	0.135999	1.500115	2.696105	2.999246	3.106824	3.405374
2.020345	0.55946	-0.076102	1.535899	-2.109486	1.627976	0.372626	0.64319	0.327238	0.936227	-0.015885	1.423919	2.076964	2.551269	2.67439	2.791166
2.368067	0.882512	0.17507	1.686485	-2.54716	1.16283	-0.215819	0.108739	-0.118723	0.428626	-0.623666	0.93068	2.13958	2.609597	2.769878	2.869874
1.79593	-0.013482	-0.169381	1.309217	-2.432801	1.240369	-0.0439339999999999	0.254064	0.648069	1.328966	0.430962	1.786887	0.711	1.642647	1.685829	1.904586
3.264067	1.330275	0.979657	1.984162	-2.343224	1.464195	0.152798	0.440444	0.17298	0.787869	-0.14624	1.268334	1.125129	1.967109	1.938625	2.217148
2.691835	0.286143	0.767478	1.506454	-2.205512	1.528336	0.40578	0.626334	0.167196	0.773337	-0.125625	1.320603	1.506921	2.35166	2.330024	2.476155
3.943486	1.348783	1.57155	2.015923	-2.276843	1.277141	0.104052	0.281027	0.369896	1.054312	0.229367	1.607537	2.258097	2.803649	2.88255	2.992976
3.043989	0.655725	0.854202	1.568815	-1.296393	1.971771	0.973511	1.049096	0.011353	0.59898	-0.338559	1.164993	2.522251	3.057353	3.161497	3.202923
3.030332	0.888921	0.602552	1.555191	-1.483532	1.486803	0.294475	0.469212	0.456299	1.117063	0.280875	1.661155	1.405861	2.219489	2.290424	2.455475
2.287521	0.442349	0.092275	1.26762	-1.416779	1.672845	0.564132	0.604153	0.368235	0.874619	0.076533	1.399512	1.314404	2.217511	2.13636	2.389665
3.284992	1.52775	0.707834	1.812951	-1.787835	1.503699	0.231745	0.351316	0.128381	0.484012	-0.450581	0.9824	2.377156	2.990654	3.006286	3.202923
2.233815	0.610739	0.0326259999999999	1.34686	-1.810924	1.571056	0.359595	0.47167	0.283873	0.629438	-0.251499	1.138657	2.153957	2.766684	2.792144	3.058256
3.320484	1.555732	0.775808	1.880367	-1.581669	1.934399	0.85518	0.935282	0.91067	1.486446	0.750183	1.811599	1.79143	2.506612	2.459962	2.767803
2.644406	0.895366	0.409351	1.630936	-2.063448	1.394879	0.268564	0.43483	0.289235	0.783129	-0.184077	1.190304	1.67918	2.381464	2.39484	2.66038
3.101999	1.458079	0.880846	1.930122	-2.040341	1.440023	0.292539	0.404327	0.472165	0.99829	0.142644	1.500115	1.891127	2.414879	2.504052	2.594875
2.753208	1.032739	0.426939	1.630936	-1.948317	1.507505	0.383346	0.607694	-0.120998	0.395239	-0.827974	0.749995	2.050828	2.579558	2.473817	2.704933
2.845022	1.067397	0.536978	1.67222	-2.040931	1.417467	0.372626	0.526454	0.17492	0.778413	-0.349449	1.112572	2.137267	2.61738	2.709021	2.837709
2.527057	0.661781	0.415362	1.530856	-1.995144	1.621792	0.580595	0.662907	0.118983	0.640218	-0.297069	1.190025	1.737449	2.329588	2.309913	2.520539
3.411207	1.634971	1.381846	2.00917	-2.064086	1.412336	0.383346	0.552978	0.059083	0.540329	-0.341721	1.060876	2.782344	3.065517	3.141554	3.289763
3.245867	1.055297	1.306014	1.754472	-2.249608	1.294764	0.21282	0.280855	0.359723	0.860176	0.092517	1.473209	2.324761	2.813066	2.921377	3.080614
3.811476	1.50442	1.518183	1.818875	-2.273327	1.222555	0.145764	0.175346	0.036542	0.440458	-0.361566	1.061181	1.747995	2.490108	2.434365	2.562799
3.140489	0.676197	0.893677	1.471152	-1.856956	1.299298	0.249472	0.272612	0.092123	0.534917	-0.275551	1.112699	1.125129	1.949888	1.933262	2.125657
3.105914	0.965688	0.740425	1.483469	-1.280606	1.654523	0.693689	0.579593	0.145935	0.485812	-0.219792	1.215776	1.738199	2.394197	2.404281	2.620649
2.042422	-0.098249	-0.085677	0.964087	-1.535214	1.506095	0.516904	0.422759	-0.00729200000000002	0.308058	-0.46102	0.957482	1.345332	2.166687	2.071936	2.422758
2.998562	1.000629	0.569097	1.541146	-1.788003	1.303882	0.170007	0.235424	0.378306	0.660045	0.149554	1.344983	2.114113	2.802341	2.752965	2.947642
2.384775	0.401948	0.188536	1.264828	-1.856257	1.308515	0.21829	0.272612	0.292844	0.498503	-0.045673	1.164211	1.415775	2.191932	1.992026	2.348366
2.706477	0.654493	0.399567	1.516701	-2.336484	0.876547	-0.280805	-0.163292	0.057003	0.403303	-0.247754	0.983581	1.913866	2.605033	2.455351	2.676057
2.309471	-0.018115	0.0433640000000001	1.144673	-2.336484	1.047575	-0.110025	-0.103176	0.502793	0.973831	0.394737	1.601667	2.086085	2.703174	2.5299	2.815946
2.594462	0.322263	0.310001	1.318117	-2.132096	1.150624	0.0420049999999998	0.115404	0.76978	1.163651	0.645713	1.883253	2.411649	2.895108	2.818888	2.998367
2.189392	-0.19869	-0.032372	1.089886	-2.179078	1.222555	0.121454	0.138333	0.649491	1.173813	0.62515	1.807601	2.413072	2.837852	2.843652	3.11607
2.291891	0.192116	0.20931	1.255679	-2.041294	1.339909	0.225404	0.221713	0.706302	1.279372	0.654866	1.860135	1.870321	2.548	2.36478	2.665445
2.422437	0.28043	0.49499	1.367829	-1.926029	1.43895	0.286152	0.356817	0.855745	1.297064	0.805585	2.063745	1.978808	2.521502	2.413732	2.594875
2.770291	0.51848	1.015956	1.566238	-1.903116	1.515281	0.413513	0.482948	0.409099	0.726522	0.01191	1.396247	1.728392	2.423769	2.225907	2.521209
3.703459	0.92812	1.738797	1.879933	-2.227829	1.150624	-0.0983750000000001	-0.042364	0.645246	1.0404	0.461021	1.731081	1.971113	2.549631	2.36478	2.694344
4.157389	1.271164	1.870646	1.978533	-1.647676	1.587718	0.396358	0.378151	0.674423	1.168719	0.541309	1.809558	2.285358	2.83529	2.757187	3.064846
3.103855	0.384913	1.121765	1.532833	-1.554404	1.448107	0.359595	0.243055	0.642451	1.050293	0.280474	1.707427	2.233442	2.773389	2.622041	2.985435
3.015563	0.748746	1.002357	1.651858	-1.13937	1.632285	0.560287	0.513071	0.404117	0.793091	0.08388	1.47489	1.992063	2.612685	2.473817	2.86219
3.01825	0.735047	0.902624	1.663868	-1.143163	1.762002	0.760272	0.647817	0.67035	0.955044	0.375092	1.655424	1.587902	2.292386	2.151552	2.521209
2.764128	0.756111	0.780647	1.594284	-1.627446	1.537612	0.486844	0.468576	0.673058	0.850311	0.418138	1.603011	1.720516	2.416641	2.211007	2.62861
2.834427	0.670383	0.707834	1.631435	-1.902362	1.411668	0.273474	0.273159	0.732832	0.950199	0.439976	1.706849	2.297768	2.737657	2.722256	3.072288
2.888193	0.699016	0.75767	1.582156	-2.085843	1.249912	0.176196	0.153015	0.618979	0.878855	0.431551	1.70517	2.088759	2.636797	2.52539	2.889479
2.448998	0.177527	0.419232	1.314409	-1.948317	1.357801	0.376888	0.348992	0.504391	0.746083	0.171538	1.549622	2.689505	3.088227	2.998548	3.268355
3.065146	0.798527	0.931362	1.735006	-2.063448	1.249912	0.249472	0.259089	0.473791	0.817061	0.171538	1.523836	2.875207	3.159074	3.099206	3.419482
3.429164	1.018048	1.24685	1.874187	-2.018135	1.258821	0.292539	0.221713	0.883713	1.341099	0.827326	2.011909	2.312656	2.777521	2.630906	3.080614
3.356088	1.039535	1.337735	1.940761	-1.925947	1.263558	0.279797	0.221081	0.465734	0.840613	0.04795	1.422103	1.982577	2.518134	2.36478	2.746767
3.098915	0.628387	1.054746	1.615733	-2.041633	1.187063	0.145764	0.130431	0.582551	1.003256	0.367403	1.62895	2.370216	2.780321	2.743677	3.030582
3.135952	0.451131	1.262361	1.557848	-2.204988	1.042219	-0.0132139999999998	-0.028159	0.616085	0.950199	0.373961	1.601667	1.820565	2.455204	2.325204	2.578851
3.811476	0.841329	1.80487	1.865557	-1.926453	1.187063	0.10914	0.100287	0.316584	0.602462	-0.075568	1.318764	1.838645	2.366635	2.309913	2.610867
3.902115	1.117253	1.790778	1.885801	-1.717984	1.205818	0.224464	0.070556	0.522588	0.893117	0.287638	1.628464	2.123435	2.648814	2.622041	2.964094
3.284992	0.61538	1.125961	1.585972	-1.230232	1.371242	0.443628	0.392692	0.373239	0.669031	0.0694	1.422103	1.963572	2.581147	2.429696	2.854499
3.987333	1.631017	1.482304	2.032871	-1.208683	1.402636	0.480252	0.378151	0.815871	1.06532	0.477647	1.784221	2.175254	2.708852	2.68735	3.079724
2.689936	0.352331	0.562403	1.368321	-1.303305	1.474599	0.553584	0.536934	1.411117	1.794741	1.471952	2.479117	2.276239	2.836566	2.796319	3.173955
3.753729	1.471393	1.275129	2.001362	-1.74202	1.241033	0.340292	0.266108	1.082196	1.334374	0.799372	1.940481	2.128878	2.864509	2.670081	3.086453
2.594462	0.364295	0.511009	1.37212	-2.154645	0.984848	-0.073566	0.017277	1.885586	2.187962	1.955379	2.736354	1.78316	2.54316	2.340962	2.802367
3.121263	0.77727	0.853422	1.627791	-2.154006	1.209639	0.170007	0.138032	1.412671	1.76693	1.38641	2.321463	1.946664	2.671451	2.560448	2.991816
2.611016	0.137028	0.523895	1.293676	-2.016868	1.43405	0.383346	0.394979	0.999522	1.380023	0.92959	1.96013	2.22132	2.865725	2.744533	3.115526
3.611149	1.188725	1.14769	1.82191	-1.673374	1.762002	0.804063	0.765694	0.675796	0.993349	0.438581	1.626174	1.781696	2.484947	2.390125	2.760001
2.275654	-0.0898939999999999	0.342154	1.281029	-2.017972	1.429825	0.463335	0.455659	0.441492	0.793091	0.344407	1.471477	1.517076	2.233551	2.146486	2.500531
3.813624	1.366159	1.437724	2.016421	-1.627289	1.806184	0.826776	0.815337	0.32366	0.598048	0.027277	1.266726	2.739641	3.163832	3.214756	3.440606
2.951876	0.343772	0.934628	1.48775	-1.718631	1.88844	1.084709	0.958712	0.412454	0.721973	0.243616	1.420164	1.969299	2.590859	2.600712	2.871837
4.05081	1.145237	1.843963	1.940761	-2.366271	1.110383	0.115282	0.092714	0.822978	1.302317	0.885981	1.958615	2.130272	2.686322	2.743677	2.99433
3.940519	0.812979	1.651546	1.697579	-1.880076	1.420731	0.523552	0.468576	0.881422	1.302317	0.90778	1.933526	2.160621	2.684796	2.669999	2.965602
3.864129	1.151564	1.648801	1.807846	-1.29974	1.7177	0.877785	0.785025	0.282098	0.553506	-0.156717	1.190025	1.324167	2.099608	1.95727	2.266204
2.652711	0.164516	0.666577	1.22477	-1.369746	1.398309	0.420025	0.318775	0.731538	1.083705	0.620621	1.755243	1.070512	1.909019	1.818498	2.122568
3.142416	0.827544	0.943575	1.577685	-1.373254	1.474599	0.576873	0.528954	0.6118	0.955044	0.396308	1.576237	2.443555	2.937392	2.808871	3.051836
3.447663	1.09566	1.002357	1.721407	-1.329953	1.784108	0.915702	0.889629	1.265101	1.52035	1.248572	2.191562	2.202958	2.744659	2.769878	2.950428
3.267392	1.210615	0.939163	1.758695	-1.993845	1.249912	0.230668	0.341194	1.44311	1.615222	1.436473	2.31921	1.741311	2.5148	2.385412	2.570829
2.780721	0.500606	0.594376	1.446447	-1.902252	1.389256	0.437124	0.536934	1.265808	1.559402	1.226664	2.190569	2.328445	2.902243	2.862132	3.05079
2.942019	0.607532	0.639307	1.475226	-1.87923	1.582181	0.570212	0.611593	0.650922	0.969013	0.459638	1.599216	2.429527	2.870685	2.971228	3.079724
2.373469	0.107705	0.267446	1.207186	-1.902362	1.591428	0.576873	0.619661	0.472165	0.817061	0.128047	1.446302	1.577539	2.239688	2.116896	2.430766
3.030332	0.919047	0.739285	1.651858	-1.650993	1.82823	0.805829	0.864702	0.746195	1.100736	0.694599	1.876783	2.069629	2.561274	2.561569	2.728542
2.606813	0.442876	0.362063	1.363946	-1.719511	1.724465	0.755573	0.853717	0.271255	0.63799	-0.00845499999999999	1.343297	2.11645	2.66138	2.575189	2.845443
3.538682	1.238557	1.047928	1.775757	-1.971178	1.563779	0.593447	0.585848	0.240489	0.543353	-0.138693	1.215456	1.306537	2.057329	1.960084	2.219163
3.410951	0.855417	1.095115	1.668697	-2.155561	1.425007	0.394167	0.391763	0.417538	0.789588	0.178801	1.419764	2.614013	3.008452	3.041353	3.189704
3.885468	0.912082	1.592148	1.816406	-2.203269	1.294952	0.267182	0.294965	0.470548	0.897924	0.236458	1.446053	1.617219	2.312145	2.250779	2.573253
3.683282	0.770924	1.503149	1.655504	-2.042499	1.375856	0.249472	0.295576	0.557817	0.93106	0.265541	1.549255	2.016737	2.502431	2.467123	2.69509
3.845289	1.222743	1.435676	1.78232	-1.69461	1.366813	0.310069	0.370385	0.585472	0.969013	0.389242	1.652428	2.994394	3.26062	3.253134	3.497342
3.178834	0.672426	0.952399	1.524388	-1.394362	1.49694	0.340292	0.422759	0.790087	1.196969	0.636972	1.806968	1.748884	2.493589	2.295293	2.626832
2.961858	0.537448	0.694703	1.483498	-1.32871	1.693071	0.563585	0.601708	0.547427	0.864508	0.120268	1.344776	2.407794	2.839147	2.713715	2.935229
2.603722	0.0373949999999998	0.291313	1.193173	-1.902654	1.23707	0.048513	0.175346	0.994606	1.279372	0.770605	1.78232	2.102282	2.653463	2.434365	2.806707
2.673488	0.427056	0.540067	1.37719	-2.085843	1.254699	-0.00651000000000002	0.14543	1.086533	1.363909	0.999754	1.933526	2.552507	2.999246	2.814777	3.210208
2.959064	0.553643	0.666577	1.491657	-1.993258	1.398061	0.248496	0.370385	0.700967	0.893117	0.368008	1.549622	2.54373	2.999246	2.885122	3.145004
2.973775	0.750038	0.93574	1.635123	-2.199932	1.299635	0.194182	0.250713	0.646653	1.0404	0.52642	1.62532	2.86971	3.093981	3.026119	3.289931
3.447302	1.087338	1.365089	1.966525	-2.017448	1.393633	0.303723	0.393763	0.648069	1.068763	0.662965	1.80336	2.987346	3.191543	3.217168	3.434325
3.100351	0.85577	1.171255	1.848376	-1.972141	1.411668	0.176196	0.318775	1.005694	1.398758	1.099388	2.13162	2.600752	2.907187	2.967306	3.167052
3.337674	0.94033	1.138538	1.882843	-1.903116	1.411668	0.170007	0.21297	0.854553	1.186816	0.859427	1.98291	2.683396	2.976017	2.948144	3.232359
3.467256	1.216662	1.298782	1.920511	-1.626205	1.837721	0.583565	0.579593	0.709014	1.072566	0.87935	1.955699	2.591944	2.944785	2.986966	3.203684
3.61514	1.166932	1.647865	2.018941	-1.671758	1.762002	0.523552	0.557449	0.354432	0.596441	0.22203	1.470968	2.626862	2.941048	2.940173	3.246554
3.979343	1.235009	2.131304	2.15957	-1.740623	1.654523	0.420025	0.445018	0.735444	1.077421	0.82421	1.957139	1.802608	2.521502	2.305954	2.717955
4.292266	1.306048	2.252672	2.139556	-1.716982	1.550704	0.273474	0.302605	0.551836	0.902626	0.543551	1.626615	2.486872	2.84576	2.761413	3.088054
3.447459	0.785843	1.693565	1.831301	-1.506164	1.483744	0.145764	0.22059	0.639688	0.878855	0.500704	1.678256	2.150406	2.741831	2.446136	2.883433
3.847315	1.185736	1.621141	2.01542	-1.042963	1.784108	0.516904	0.543213	0.758308	1.097082	0.878838	1.933526	2.230497	2.774758	2.490357	2.985435
3.519617	0.968122	1.294467	1.891861	-1.229633	1.632285	0.292539	0.38709	1.113385	1.363909	1.216937	2.166597	2.734424	3.123725	2.881117	3.340907
3.465433	0.834867	1.172465	1.851512	-1.304258	1.733802	0.437124	0.520999	0.844177	1.055277	0.838991	1.860135	3.150035	3.287055	3.189206	3.557185
3.121263	0.561774	0.995015	1.724883	-1.649504	1.487815	0.0725439999999999	0.213393	0.998521	1.319954	1.166629	2.034497	3.180123	3.348854	3.178341	3.529625
3.321337	0.752187	1.341469	1.854695	-1.764778	1.425007	0.029976	0.17557	0.674423	0.935809	0.745056	1.80336	3.46807	3.542153	3.477247	3.831963
3.519804	0.968122	1.523365	2.026803	-1.833898	1.415995	0.060467	0.167973	0.586943	0.836332	0.461825	1.675418	3.12593	3.256326	3.25945	3.615207
2.793904	0.260537	0.905097	1.647166	-1.741878	1.505135	0.248496	0.324938	0.556312	0.9974	0.628763	1.752489	3.22877	3.324891	3.172598	3.59153
3.265294	0.729247	1.150799	1.799311	-1.787786	1.469658	0.333922	0.452844	0.912891	1.342784	1.076079	2.10848	2.456273	2.817237	2.665611	3.124216
2.46033	-0.236263	0.637846	1.388942	-1.764542	1.595192	0.480252	0.513071	0.14199	0.395045	-0.112316	1.164263	2.478005	2.909714	2.730813	3.080614
3.501856	0.842217	1.75304	1.966525	-1.995858	1.447348	0.273474	0.430574	0.673058	1.158608	0.817528	1.829684	2.561499	3.040836	2.894853	3.304171
3.794536	0.750038	1.978111	1.914665	-1.46293	2.02013	0.929967	1.015881	0.699652	1.140426	0.746761	1.754115	1.355057	2.114962	1.97852	2.308027
4.841897	1.641001	2.491299	2.383617	-1.856702	1.43405	0.145764	0.341194	0.638318	1.083705	0.587537	1.729402	2.844628	3.227499	3.176309	3.469384
3.537723	0.708548	1.530808	1.753593	-1.042963	1.986018	0.877785	0.967181	0.60898	1.016905	0.645247	1.754675	2.224255	2.717634	2.557036	2.98678
3.823588	1.100635	1.533243	1.903465	-1.464031	1.617391	0.407032	0.423962	1.173927	1.587334	1.37752	2.265219	2.076723	2.680269	2.469196	2.86219
3.161641	0.464171	0.966401	1.671204	-1.397149	1.75588	0.650149	0.702358	0.993648	1.408176	1.119021	2.036139	1.67022	2.327671	2.141421	2.513118
3.0379	0.590242	0.862043	1.585531	-1.468072	1.843887	0.805829	0.820802	0.845297	1.055277	0.8568	1.754115	1.904287	2.58435	2.285558	2.665445
2.891447	0.320487	0.644027	1.524388	-1.651261	1.90958	0.865031	0.864702	0.67035	0.883584	0.615044	1.548549	2.371883	2.839147	2.573838	2.846801
3.573478	0.954167	1.153338	1.834525	-2.015782	1.602883	0.424212	0.430574	0.409099	0.679833	0.323363	1.317606	2.979113	3.159074	3.010163	3.224652
3.15968	0.680173	1.007968	1.728404	-1.833492	1.80321	0.636639	0.686077	0.887209	1.266078	1.105827	1.977845	3.251598	3.41671	3.312071	3.506179
3.249888	0.736868	1.062738	1.82607	-2.062012	1.496112	0.36407	0.408274	0.621901	0.987794	0.675345	1.673295	2.482937	2.817237	2.67439	2.965602
2.63629	0.366765	0.766677	1.614072	-2.108402	1.389139	0.127363	0.250713	0.412454	0.807808	0.373506	1.470268	3.19139	3.355386	3.32262	3.469384
2.685833	0.338043	0.82659	1.552979	-2.063223	1.451623	0.127363	0.250713	-0.181153	0.08063	-0.569237	0.780658	2.011004	2.56297	2.305037	2.618854
2.865096	0.366765	1.020205	1.687836	-2.432276	1.129489	-0.353584	-0.140507	0.032286	0.255279	-0.175389	1.088098	2.726416	3.106551	2.972165	3.246904
3.04769	0.318135	1.198961	1.581587	-2.202329	1.523271	0.157724	0.302605	0.240489	0.596441	0.135348	1.317367	2.216094	2.66786	2.476507	2.72358
4.169547	1.296434	1.970388	2.078167	-1.995003	1.527344	0.308759	0.458323	0.592898	1.034758	0.676606	1.724852	1.837504	2.476859	2.255758	2.593693
3.358534	0.557961	1.431551	1.707137	-1.903116	1.398061	0.0789029999999999	0.220021	0.327238	0.649288	0.243662	1.393869	2.54869	2.885081	2.786855	3.045582
3.040805	0.594514	1.095414	1.702686	-1.30518	1.678242	0.302546	0.472724	0.292844	0.62933	0.171279	1.445582	2.345834	2.762357	2.545301	2.845443
2.829386	0.594514	0.911579	1.646089	-1.261346	1.575697	0.290215	0.375766	0.171046	0.440458	-0.12737	1.113114	2.587797	2.917514	2.717716	3.053073
2.634667	0.489573	0.692728	1.589558	-1.742339	1.198696	-0.263328	-0.069316	0.675796	1.062929	0.650652	1.64934	2.808993	3.168834	3.033526	3.354373
2.418408	0.124103	0.374207	1.395395	-1.991679	1.296594	-0.0586369999999998	0.034713	0.704956	0.907676	0.586238	1.624501	2.639797	3.010847	2.778358	3.13161
3.289193	1.023968	1.050235	1.856182	-2.035679	1.371952	0.0738289999999999	0.242199	0.768475	0.893929	0.743432	1.749959	2.8056	3.229328	2.983024	3.361771
2.443847	0.202711	0.573934	1.439515	-2.082033	1.389449	0.0913999999999999	0.271928	0.858153	1.053389	0.87935	1.850632	2.578787	3.006094	2.792144	3.159708
2.944975	0.533249	0.843964	1.678713	-2.19474	1.310187	-0.0586369999999998	0.071541	0.504391	0.841877	0.373961	1.419225	2.732367	3.100093	2.967306	3.275338
2.47041	0.164516	0.535226	1.422639	-1.923617	1.579772	0.224021	0.338984	0.626339	0.959549	0.63201	1.697587	2.474058	2.82006	2.765643	3.088054
2.6154	0.271513	0.562403	1.50001	-1.833245	1.659968	0.278653	0.399473	0.743462	1.184987	0.840679	1.926062	2.770067	3.075441	3.025719	3.41891
2.427534	0.135394	0.478817	1.438714	-1.674102	1.828422	0.580245	0.67588	0.746195	1.180073	0.817391	1.898772	2.68748	2.951195	3.068257	3.368635
3.28324	1.052765	1.270427	1.932107	-1.765119	1.781242	0.497157	0.595539	0.89198	1.372715	1.096998	2.075677	2.270087	2.728271	2.735097	3.11034
3.06179	0.890803	1.361667	1.851512	-1.444557	2.056628	0.835455	0.930335	0.656714	1.058148	0.75393	1.823516	2.218658	2.729824	2.739386	3.117757
4.232235	1.663234	2.356697	2.387069	-1.948818	1.496112	0.145564	0.279764	0.801381	1.245917	1.021156	1.976481	2.060233	2.537055	2.547978	2.879523
3.904702	1.383132	2.328766	2.15543	-1.833896	1.544606	0.127558	0.271928	0.534945	0.870205	0.496773	1.596753	2.448837	2.82436	2.91733	3.232359
4.642362	1.771685	2.606479	2.322789	-1.810903	1.42044	0.121617	0.22737	0.409099	0.794107	0.375092	1.52193	3.322524	3.391294	3.500051	3.804595
4.294188	1.498532	2.222619	2.131856	-1.51073	1.522486	0.236197	0.301663	0.344026	0.774673	0.193418	1.471744	2.522251	2.852596	2.839514	3.189048
4.290283	1.5313	2.152772	2.211069	-0.682428	2.027969	0.821613	0.829333	0.065858	0.320274	-0.447406	1.03524	3.152787	3.293639	3.385369	3.69157
3.717995	1.345508	1.664866	2.006633	-1.007476	1.650876	0.405085	0.398616	0.814715	1.140426	0.750416	1.883253	2.670204	2.916191	2.847794	3.261052
3.734375	1.433599	1.768175	2.134472	-1.192766	1.575697	0.411429	0.391763	0.723932	1.050293	0.568236	1.627521	2.460243	2.844419	2.678708	3.058256
3.15968	0.975142	1.388901	1.921313	-1.309365	1.79727	0.719141	0.727919	0.935735	1.202084	0.887665	1.882564	2.609464	2.973597	2.796319	3.26088
3.789381	1.498532	1.664866	2.237167	-1.56048	1.610783	0.368818	0.443897	0.7277	1.050293	0.537862	1.627063	3.282392	3.322468	3.231485	3.59987
3.483536	1.296434	1.595491	2.120628	-1.833492	1.522486	0.315002	0.302605	0.433331	0.660045	0.076382	1.318449	2.776973	3.002627	2.858062	3.202923
3.465433	1.059428	1.435676	2.032291	-1.787932	1.522486	0.278653	0.324938	0.318343	0.684289	0.032826	1.266882	3.003789	3.163832	3.014044	3.347524
3.17407	1.052765	1.451696	1.972255	-1.810808	1.460324	0.278653	0.324938	0.140027	0.49425	-0.207909	1.112805	3.244642	3.261509	3.172598	3.526993
3.374463	1.080735	1.475505	2.040895	-1.559296	1.722251	0.629934	0.609679	0.347468	0.750629	0.178595	1.39511	3.130287	3.105451	3.068257	3.411845
3.447459	1.185736	1.578858	2.126771	-1.65028	1.624982	0.503707	0.543213	0.260145	0.651153	0.164011	1.394713	2.683396	2.882382	2.847794	3.189048
3.741446	1.383132	1.822638	2.241509	-1.995003	1.317925	0.060467	0.160401	0.498044	0.869468	0.483684	1.650178	2.661552	2.821485	2.81726	3.138999
4.090139	1.739901	2.30894	2.464233	-1.949382	1.41144	0.206576	0.22059	0.200118	0.55188	0.156736	1.343568	2.382607	2.662988	2.596225	2.915845
4.529603	1.992029	2.716502	2.560983	-1.833686	1.599012	0.493468	0.468576	0.198226	0.523087	0.193222	1.39511	2.639797	2.791866	2.747974	2.952108
4.655118	2.091336	2.784603	2.62884	-1.949631	1.295566	0.029976	0.025478	0.292844	0.662241	0.411091	1.547876	2.522251	2.695656	2.669999	2.929274
4.102401	1.509588	2.118331	2.149168	-1.324098	1.784613	0.812778	0.659903	0.171046	0.506213	0.251426	1.369231	1.658639	2.152677	2.111781	2.447307
4.45785	2.041657	2.256149	2.430009	-1.439651	1.353754	0.121292	0.026036	0.167196	0.539123	0.142169	1.394908	3.036586	3.166804	3.238679	3.413229
3.140489	0.848535	1.123969	1.71908	-0.700645	1.984479	0.952382	0.801822	0.313086	0.543353	0.273706	1.446302	2.460243	2.814448	2.787972	3.027545
3.573478	1.333708	1.311558	1.932893	-1.371993	1.317925	0.10303	0.08537	0.786463	1.120384	0.982651	1.908406	2.178174	2.62215	2.604352	2.954104
2.529174	0.311738	0.623043	1.451926	-1.467243	1.482483	0.327584	0.26501	0.188857	0.333049	-0.114431	1.00991	2.658554	2.968867	3.068944	3.283782
3.125247	0.729247	0.97005	1.722816	-1.87933	1.282978	0.084889	0.055415	1.026885	1.276306	1.13183	1.931379	1.691012	2.333444	2.236016	2.601894
3.086544	0.756111	0.916382	1.678713	-1.901752	1.389449	0.21829	0.167815	0.998521	1.248208	1.072204	1.956414	3.104383	3.385276	3.448646	3.668788
2.797407	0.451131	0.853035	1.561077	-2.038753	1.429273	0.224464	0.205375	0.82419	1.115436	0.837558	1.777113	2.723812	3.09905	3.157807	3.38503
2.341287	-0.0701040000000002	0.547967	1.365743	-1.559843	1.921996	0.88611	0.851038	0.738087	1.016095	0.820641	1.826746	2.863973	3.131466	3.157807	3.392088
2.939254	0.542181	0.967559	1.740296	-2.108956	1.380248	0.176196	0.160628	0.88487	1.342784	1.123691	2.057032	3.582949	3.670382	3.706589	3.971204
2.319463	0.186503	0.665908	1.467256	-1.742226	1.656194	0.583565	0.575236	0.347468	0.764413	0.265798	1.497751	2.652892	2.851211	2.925428	3.181275
3.247446	0.883778	1.329639	1.952194	-1.719258	1.749949	0.723536	0.613658	0.498044	0.983541	0.627481	1.753021	1.81927	2.312145	2.309913	2.607698
3.227767	0.691524	1.103421	1.851512	-1.764955	1.80934	0.633842	0.577249	0.407431	0.893117	0.425178	1.625743	1.888157	2.41305	2.358987	2.69705
3.792575	1.089214	1.783894	2.184106	-2.110236	1.398061	0.0725439999999999	0.115404	0.057003	0.403303	-0.082289	1.189851	1.999591	2.47134	2.448388	2.71541
3.520219	0.81988	1.898449	2.066865	-1.580167	1.938007	0.723536	0.649934	0.475422	0.855566	0.611413	1.752489	2.678846	2.979716	3.091609	3.261151
4.243615	1.488492	2.213508	2.243688	-1.648956	1.812554	0.480252	0.416104	0.650922	1.133759	0.920987	2.007918	1.577306	2.221186	2.215972	2.514466
3.356876	0.869815	1.552104	1.889671	-1.741408	1.464901	0.0664900000000002	0.02505	0.292844	0.794107	0.366874	1.574642	2.327704	2.760835	2.804683	3.05674
3.769883	1.548793	1.647584	2.125899	-1.235287	1.637938	0.297408	0.257846	0.591399	1.072566	0.676606	1.85357	1.939025	2.537055	2.508623	2.851177
3.268755	1.132684	1.116884	1.856182	-0.639994	2.04967	0.776154	0.752229	0.738087	1.261001	0.979785	2.057837	2.40956	2.948605	2.948144	3.210243
2.894888	0.905148	0.733599	1.666252	-1.126467	1.738657	0.447778	0.369518	0.915143	1.349989	1.130105	2.10763	2.142048	2.69251	2.683027	2.968277
2.714902	0.77727	0.585909	1.646089	-1.470589	1.671603	0.36256	0.286946	0.88487	1.261001	1.095423	2.10763	2.543923	2.94605	3.049025	3.327414
3.021129	1.018048	0.876209	1.80309	-1.855161	1.398838	0.024972	-0.010997	0.944268	1.194886	1.101861	1.954297	2.263945	2.754833	2.827126	3.034394
2.677927	0.706534	0.741545	1.722816	-1.764585	1.649721	0.398772	0.316752	0.711757	0.90307	0.775603	1.774537	2.337496	2.815838	2.893145	3.181169
3.662649	1.603663	1.416646	2.202421	-1.832588	1.667673	0.411429	0.369518	0.242391	0.49791	0.06361	1.266432	2.701611	3.06874	3.185578	3.313173
3.178834	0.96171	1.06414	1.892907	-1.764739	1.729557	0.51405	0.467249	0.04297	0.305322	-0.006866	1.190279	2.499825	2.878402	3.115336	3.159091
2.944975	0.805738	0.907097	1.735577	-2.013456	1.478024	0.169769	0.145335	0.190664	0.62933	0.172413	1.367849	2.989486	3.197096	3.483729	3.560574
2.475706	0.381262	0.618267	1.630068	-1.94602	1.54878	0.375108	0.348047	-0.195748	0.230155	-0.453211	0.960783	3.313826	3.32572	3.779602	3.769874
2.760302	0.492503	0.621553	1.703444	-2.082361	1.42044	0.13353	0.070257	-0.250645	0.164356	-0.495991	0.961063	2.900329	3.043169	3.528459	3.464419
2.939254	0.841331	0.86684	1.87484	-1.719566	1.778839	0.567169	0.473833	0.22529	0.77174	0.322467	1.621245	2.591944	2.852596	3.26298	3.217498
2.481662	0.439241	0.53834	1.630568	-1.923617	1.703937	0.368818	0.38408	0.196666	0.673476	0.236682	1.52033	2.225304	2.609423	3.095405	2.991816
3.28324	1.107994	1.231492	1.989443	-2.243394	1.415915	0.0425819999999999	0.100455	0.368671	0.898488	0.415538	1.647767	1.747995	2.254261	2.752965	2.631072
3.319848	0.741191	1.376833	1.87484	-1.765141	1.815824	0.563585	0.579593	0.42963	0.922148	0.458108	1.72306	1.627391	2.192416	2.499484	2.535545
3.447302	0.798698	1.756467	1.935126	-1.765073	1.887712	0.680001	0.611593	0.303822	0.85098	0.329922	1.674976	2.107106	2.57157	2.905217	2.821946
4.099017	1.130262	1.938409	2.012304	-1.833876	1.647051	0.327584	0.385943	0.061167	0.55188	-0.081454	1.446053	1.396066	2.08836	2.270973	2.281875
4.383542	1.523709	1.961886	2.169023	-1.420916	1.890784	0.570212	0.581376	0.325446	0.902626	0.308517	1.753021	2.209445	2.723662	3.010163	3.071133
4.166183	1.569647	1.775328	2.169023	-1.442624	1.634115	0.383346	0.364668	0.203923	0.688769	0.099066	1.574642	2.260941	2.753354	2.971228	3.129753
3.430553	1.164516	1.201582	1.989656	-0.778267	2.1627	0.973998	0.870783	0.194459	0.706924	-0.003417	1.550774	1.79012	2.431025	2.674392	2.931402
3.161641	0.950068	0.880231	1.8043	-0.963385	1.940873	0.66379	0.652204	0.550359	1.093789	0.484632	1.912081	2.570036	3.032967	3.213603	3.372008
3.25142	1.417325	1.13517	2.035106	-1.331883	1.784613	0.546914	0.470049	0.667672	1.031794	0.543551	1.964904	2.248823	2.808976	2.916379	3.056288
3.376108	1.46304	1.180558	2.177726	-1.583244	1.553597	0.333922	0.326561	0.488735	0.811894	0.237364	1.681978	2.35012	2.873221	2.916379	3.063714
3.68131	1.828514	1.373729	2.283288	-1.719597	1.597766	0.36407	0.304101	0.669007	0.907597	0.463661	1.836251	2.71192	3.220584	3.160351	3.232794
3.140489	1.152632	0.956811	1.972255	-1.516082	1.862823	0.65972	0.649934	0.821773	1.279372	0.830886	2.063745	2.830363	3.285512	3.351559	3.474278
3.339057	1.007029	1.006709	1.943647	-1.923982	1.584729	0.340292	0.418807	0.553321	1.075464	0.505552	1.885375	2.720477	3.188902	3.23839	3.313173
3.356371	1.152632	1.035345	2.026803	-1.787763	1.793896	0.546914	0.593567	0.32366	0.802444	0.287057	1.703574	2.844562	3.220584	3.383709	3.503705
3.555929	1.551457	1.283218	2.203991	-1.856056	1.771937	0.576873	0.569131	0.036542	0.428091	-0.117127	1.471744	2.322998	2.837852	2.869132	2.953195
2.993442	1.186793	0.884732	1.972255	-1.742315	1.79727	0.527099	0.490838	0.069566	0.444553	-0.030001	1.522531	1.971113	2.530063	2.59994	2.742175
3.809574	1.836512	1.400356	2.340521	-1.606191	1.831751	0.550426	0.571661	-0.142968	0.263088	-0.364929	1.318449	2.596544	2.948605	3.12654	3.275552
3.282692	1.361332	1.14501	2.164195	-1.311539	2.210354	1.026407	0.952156	0.127105	0.539123	0.056244	1.65061	1.899174	2.531799	2.569371	2.771317
3.429347	1.389357	1.250886	2.164195	-1.355119	2.21779	1.084693	1.046175	0.446471	1.025744	0.430962	1.932802	2.209445	2.848468	2.897165	3.144432
3.503023	1.305115	1.467935	2.181807	-1.513433	2.20381	1.0773	1.067128	-0.212438	0.316179	-0.525979	1.138411	2.397227	3.039684	3.235079	3.443474
3.264067	0.784733	1.43643	2.006735	-1.535696	2.160487	1.018204	1.084437	0.380009	0.959915	0.330489	1.833512	1.123517	2.270919	2.240926	2.556704
4.418426	1.824588	2.451482	2.568887	-2.133707	1.554624	0.268564	0.267771	0.376611	0.974674	0.207577	1.783577	1.627751	2.653463	2.717983	3.063714
3.995633	1.146747	2.115218	2.153046	-1.464031	2.158337	0.936485	0.974539	-0.071884	0.462037	-0.541778	1.267689	1.971113	2.873221	2.928254	3.269449
4.683275	2.056781	2.418287	2.550517	-0.958116	2.445613	1.262102	1.228765	0.223654	0.821442	-0.07627	1.604437	2.352162	3.128489	3.298089	3.562611
3.411124	0.726971	1.299406	1.943647	-1.025646	2.054117	0.85518	0.776989	1.083905	1.818609	1.166629	2.586621	1.405861	2.456965	2.42503	2.798781
4.185385	1.899511	1.74465	2.446176	-0.522566	2.31967	1.291433	1.123773	0.844177	1.441231	0.724783	2.224938	1.961599	2.839147	2.748747	3.181169
2.710601	0.444397	0.73218	1.695175	-0.546989	2.308025	1.27752	1.180932	0.661114	1.231526	0.44965	2.046812	1.82201	2.803649	2.70519	3.078266
3.448172	1.344061	1.246966	2.111992	-0.987868	1.993983	0.914689	0.891098	1.14055	1.740781	1.220083	2.585176	2.570036	3.316458	3.329794	3.730122
3.194495	0.972115	0.961224	1.972255	-1.059372	2.174637	1.14365	1.079922	0.809056	1.310425	0.523989	1.96915	2.147459	2.995951	3.033733	3.386106
3.194495	1.057485	0.979547	1.915055	-1.288036	2.080881	1.055283	1.014705	1.321418	1.722937	1.26427	2.557564	2.26711	2.999246	3.076478	3.429486
2.416704	0.230288	0.522675	1.577355	-1.515457	2.018479	1.011362	0.925117	1.297211	1.726345	1.333064	2.598621	2.144674	2.874502	2.967306	3.202983
3.015563	0.755534	0.875553	1.792507	-1.833151	1.681967	0.709805	0.66186	1.12209	1.61517	1.151923	2.571317	2.512916	3.127516	3.393608	3.555779
2.814187	0.61892	0.866546	1.723666	-1.515936	2.064523	1.165272	1.039147	0.797548	1.337565	0.525485	2.087892	3.289678	3.636584	3.975063	4.025555
2.814187	0.309748	0.712491	1.674937	-1.696855	1.80991	0.915702	0.826307	0.390364	0.846416	-0.022559	1.624501	2.389857	3.000364	3.100474	3.291771
3.045736	0.654493	0.921518	1.805883	-1.423942	2.092984	1.121401	1.102958	0.180779	0.699582	-0.131153	1.548549	2.574445	3.131466	3.189206	3.349669
2.753208	0.212961	0.593048	1.630568	-1.902015	1.566695	0.376888	0.355803	0.504391	1.049186	0.229219	1.881215	2.917036	3.324074	3.528459	3.603508
3.465877	1.045039	1.24685	2.075573	-1.445978	2.009019	1.025825	0.963749	0.589907	1.125357	0.366416	1.934261	2.439909	3.069833	3.12654	3.283155
3.301286	0.690735	1.302027	2.029522	-1.83385	1.66909	0.567024	0.605547	0.140027	0.535985	-0.366519	1.421831	2.991838	3.448165	3.630418	3.714017
3.098915	0.502807	1.43643	2.009495	-1.421897	2.030702	1.099379	1.015881	0.641066	1.212389	0.432949	1.964084	2.330806	2.973597	3.052862	3.180995
3.777577	0.683451	1.985171	2.15543	-1.419143	2.015751	1.129169	1.006142	0.192585	0.578017	-0.178516	1.526054	1.982577	2.744659	2.748747	2.902083
4.125787	0.943544	2.418112	2.212799	-1.741045	1.612007	0.594302	0.563064	0.369896	0.744957	0.054674	1.681418	1.709644	2.552916	2.569371	2.784983
3.976254	0.502807	2.028988	1.972255	-1.462549	1.718677	0.62442	0.540704	0.695753	1.171239	0.514623	2.121416	1.598389	2.423769	2.275832	2.726539
4.353157	1.085827	2.133942	2.166585	-0.975865	1.90958	0.899411	0.821349	0.603432	1.119446	0.369441	1.993557	2.478005	3.063418	3.080252	3.3709
3.194495	0.247698	1.236879	1.735577	-0.604694	2.034871	1.047876	0.952472	0.630256	1.101269	0.479782	2.071083	1.661403	2.511499	2.36189	2.665849
3.573478	0.96171	1.567221	2.074926	-0.909082	1.740685	0.721464	0.587633	0.751012	1.226149	0.633082	2.121416	2.605417	3.15634	3.065186	3.386106
3.140489	0.769996	1.217966	2.003733	-1.603908	1.193521	0.0786290000000001	-0.111991	0.690666	0.999775	0.42859	1.967421	1.948963	2.766684	2.604571	2.893441
2.78457	0.343772	0.898071	1.74747	-1.582211	1.384824	0.21282	0.228796	1.080524	1.345268	0.985219	2.303469	2.587992	3.218958	3.160351	3.34375
2.888193	0.534256	0.857565	1.743861	-1.742331	1.433796	0.291125	0.22059	0.814715	1.036806	0.726499	2.042192	2.008312	2.802341	2.829703	3.019074
2.851233	0.347415	0.816893	1.646447	-1.765052	1.610783	0.473693	0.454178	0.995571	1.289965	1.037257	2.349835	3.150035	3.572005	3.60619	3.792414
3.157921	0.705392	1.119739	1.906568	-1.878355	1.500093	0.387782	0.295576	0.735444	1.0404	0.741888	2.08701	2.508531	3.218958	3.192345	3.352202
3.628728	1.142342	1.486136	2.137977	-1.696822	1.641814	0.443628	0.439756	0.439846	0.82641	0.250861	1.754115	2.499708	3.090105	3.007179	3.248829
3.246546	0.899559	1.38467	2.078167	-1.310484	2.083466	1.025825	0.884399	0.61465	1.031794	0.525485	1.986812	3.040997	3.476307	3.387002	3.660565
3.301879	0.812789	1.361211	2.129289	-1.354776	1.987307	0.907493	0.804527	0.138071	0.591403	-0.111478	1.550381	2.386149	3.001491	2.858062	3.129753
3.392657	1.013463	1.369003	2.118065	-1.627877	1.672866	0.530232	0.426805	0.49181	0.922301	0.236576	1.860135	2.254797	2.873221	2.63936	2.975809
3.172903	0.647802	1.290113	1.923569	-1.420916	1.943796	0.892168	0.74637	0.399198	0.835949	0.120362	1.758227	2.705327	3.129472	3.084033	3.407217
3.52175	1.079647	1.766728	2.270237	-1.466953	1.80991	0.767243	0.629964	0.218158	0.609584	-0.223137	1.526865	2.422027	3.036282	2.90925	3.268355
3.300777	0.58238	1.668907	2.026803	-1.443622	1.862823	0.767243	0.599538	0.428517	0.859896	0.251426	1.809558	2.535122	3.098017	2.979087	3.421265
3.668931	0.777067	2.168393	2.164195	-1.419512	1.778839	0.66379	0.516415	0.399198	0.730158	0.18585	1.731081	2.315938	2.938602	2.717983	3.195569
4.25681	1.142342	2.603769	2.318798	-1.18778	2.009019	0.914689	0.721358	0.423768	0.840834	0.28851	1.836251	2.872356	3.255497	3.25945	3.596703
3.992612	0.805738	2.395798	2.100731	-1.138045	1.868935	0.751402	0.65463	-0.147873	0.135219	-0.489805	1.216242	2.380875	2.936192	2.779642	3.275977
3.410925	0.542181	1.801122	1.849504	-0.902943	1.834502	0.698482	0.534622	0.307888	0.600445	0.156793	1.757005	1.998857	2.675821	2.432337	2.960739
4.115055	1.393887	2.167663	2.313963	-0.630401	1.828422	0.774248	0.577249	0.394341	0.542321	0.178919	1.758852	2.095439	2.747522	2.490357	3.027545
3.069329	0.558108	1.384942	1.836143	-0.981361	1.473601	0.383346	0.24361	0.543085	0.797421	0.501881	1.991811	2.793935	3.192443	3.107894	3.465766
3.127537	0.680173	1.52069	1.927751	-1.306074	1.203915	-0.0429689999999998	-0.050363	0.658545	0.811937	0.511426	2.020621	2.850015	3.353115	3.115336	3.63954
3.105914	0.607532	1.245097	1.836143	-1.444557	1.265681	0.0969520000000001	0.062591	0.506356	0.623476	0.224407	1.65875	3.282392	3.542654	3.512458	3.857673
2.747628	0.164516	1.04685	1.59761	-1.536982	1.371952	0.303723	0.205731	1.049207	1.163743	0.95908	2.329675	4.237642	4.238712	4.235142	4.64039
2.599005	0.0969	0.970783	1.565187	-1.355457	1.645743	0.709805	0.589406	1.145296	1.318229	1.188646	2.395956	3.343848	3.667363	3.564609	3.979016
3.375343	0.989907	1.626548	1.978176	-1.696782	1.464748	0.376888	0.356817	0.7277	0.979644	0.616409	2.040414	3.545381	3.731934	3.759655	4.193193
2.561634	0.195497	1.220451	1.650307	-1.902362	1.269341	0.225404	0.168701	0.817036	1.210177	0.79745	2.092445	3.947704	4.049441	4.157463	4.411263
2.810847	0.247698	1.254924	1.711739	-1.627596	1.624982	0.580595	0.518314	0.936773	1.401872	1.006271	2.296569	3.001844	3.412881	3.538332	3.838134
3.629759	1.192692	1.790778	2.172989	-1.489681	1.740685	0.788361	0.618252	0.0405829999999999	0.383153	-0.288623	1.267548	3.623827	3.794922	3.970044	4.299071
2.531361	-0.0790850000000001	1.024456	1.61849	-1.511894	1.696639	0.728493	0.64319	0.7277	1.24926	0.817528	2.167582	2.667182	3.157241	3.171127	3.612452
3.796749	1.316043	1.826002	2.228373	-1.282068	1.950358	1.003303	0.850271	0.723932	1.3049	0.885461	2.196674	3.552096	3.827524	3.838707	4.205404
2.874851	0.401948	1.33848	1.885801	-1.255821	2.02013	1.100226	0.978001	0.333867	0.666762	0.120268	1.604437	2.972995	3.541664	3.582956	3.922727
3.300777	0.726821	1.746212	2.052962	-1.717677	1.572964	0.442939	0.347767	0.931668	1.407038	1.128322	2.32847	2.478005	3.160948	3.150445	3.587928
3.282279	0.481521	1.795825	1.955043	-1.578327	1.702368	0.638308	0.590029	0.693194	1.043895	0.763881	2.070131	2.670876	3.255497	3.291134	3.610309
4.829965	1.832489	2.999489	2.635928	-1.509118	1.812554	0.721464	0.601768	0.0345259999999999	0.295132	-0.334829	1.268161	3.382594	3.827103	3.865984	4.134394
3.686207	0.576393	2.146368	1.911997	-1.392153	1.749949	0.788361	0.64638	0.665026	1.028465	0.682433	2.016143	2.190486	2.90103	2.916379	3.180995
4.717878	1.716792	2.659474	2.397822	-0.6975	2.215662	1.336219	1.075769	0.423768	0.807073	0.244973	1.655956	2.863973	3.382516	3.43878	3.682234
3.429164	0.591912	1.64297	1.849504	-0.696435	1.962691	0.951621	0.713076	0.841961	1.254631	0.874423	2.197726	2.917309	3.413492	3.435504	3.799122
3.321337	0.706534	1.517255	1.909717	-0.468612	2.015751	0.981272	0.818262	0.868359	1.242357	0.767852	2.097246	2.993636	3.571602	3.538332	3.8805
2.491772	-0.030904	0.893677	1.475857	-0.498078	2.006239	1.040425	0.870783	1.197126	1.543558	1.182256	2.410989	2.698094	3.380557	3.284206	3.698054
3.393778	0.912082	1.439343	2.043667	-0.827153	1.872112	0.88611	0.666227	1.229479	1.548614	1.327937	2.48177	2.190486	3.02868	2.77133	3.253942
2.438244	0.175371	0.866546	1.609805	-1.104077	1.965566	0.959553	0.818262	1.289443	1.486413	1.429179	2.532778	1.915871	2.804968	2.551538	3.093355
3.393778	0.996658	1.524866	2.083502	-1.696822	1.504612	0.333922	0.311902	1.528664	1.802778	1.776296	2.737926	2.915035	3.507575	3.316141	3.779371
3.320484	0.77727	1.38467	1.992292	-1.21955	2.030702	1.018576	0.870783	1.382146	1.722937	1.672644	2.679535	2.76848	3.381199	3.104181	3.632774
2.959064	0.479961	1.239635	1.800859	-1.537534	1.663795	0.570212	0.538743	0.579661	0.898492	0.542391	1.834183	3.188093	3.635556	3.573749	3.909856
2.865096	0.314718	1.136686	1.740296	-1.673918	1.650876	0.443628	0.502115	0.554812	0.821442	0.454012	1.831556	3.057297	3.509544	3.43878	3.834929
3.501856	0.876782	1.483082	2.069503	-1.696558	1.606808	0.523552	0.457288	0.106978	0.345323	-0.222086	1.370406	2.722501	3.196146	3.060549	3.528199
2.936688	0.384913	1.24685	1.886481	-1.490987	1.81915	0.790041	0.638158	0.0819	0.270083	-0.184077	1.369589	2.561499	3.163832	2.952136	3.499231
3.520219	1.0828	1.877344	2.2635	-1.444557	1.850282	0.760272	0.64638	0.221816	0.450369	-0.098764	1.473854	2.28221	2.9724	2.839514	3.304289
3.503023	0.941459	1.822638	2.192906	-1.580851	1.762665	0.707508	0.648889	0.51957	0.903446	0.535458	1.911327	3.052939	3.479642	3.378555	3.773835
3.392732	0.542181	1.822638	2.029522	-2.018443	1.349077	0.0847470000000001	0.032203	0.457855	0.782994	0.419695	1.835552	2.975329	3.479059	3.483729	3.767205
3.632545	0.712763	2.109243	2.066865	-1.60307	1.771937	0.573793	0.526454	0.340612	0.705932	0.317091	1.705721	2.5832	3.194275	3.052862	3.521281
4.453573	1.310537	2.786944	2.369163	-1.579157	1.718677	0.469969	0.479717	0.426927	0.710654	0.361598	1.732843	2.618167	3.192443	3.189206	3.558767
4.342777	1.232605	2.596126	2.36025	-0.908229	2.18433	1.084709	0.962233	0.669007	0.950995	0.674049	1.961683	2.732367	3.318633	3.329794	3.675513
4.294188	1.333708	2.509286	2.383817	-1.089849	1.887712	0.647572	0.502115	0.550359	0.783129	0.506571	1.83285	2.917309	3.413492	3.396922	3.792543
3.862164	1.179434	2.061165	2.162879	-0.560056	2.205929	1.151136	0.923254	0.48569	0.893563	0.55994	1.886837	3.44426	3.638525	3.668538	4.019455
3.376108	0.757573	1.621499	1.916151	-1.004596	1.694826	0.51029	0.371393	0.63158	0.903446	0.532252	1.836251	2.710198	3.193354	3.041369	3.529625
2.78457	0.582174	1.261544	1.754817	-0.938006	1.694826	0.51029	0.401609	0.454752	0.725463	0.391489	1.679273	2.380875	2.968867	2.889131	3.392088
2.61996	0.242555	0.965637	1.589558	-0.941028	1.738657	0.680001	0.641829	1.024068	1.261656	1.178965	2.191562	2.836199	3.228409	3.087818	3.586188
2.669225	0.516883	1.123969	1.722816	-1.241098	1.627809	0.520558	0.40047	0.934705	1.16604	1.033385	2.088783	2.847184	3.255497	3.178341	3.5519
3.230986	1.003441	1.552104	2.049353	-1.40223	1.487014	0.36256	0.287351	0.845297	1.013263	0.858938	1.935758	2.610259	3.093981	2.94777	3.377968
3.04985	0.820247	1.369117	1.912912	-1.560759	1.504515	0.405085	0.384941	0.698345	0.946047	0.689233	1.755243	2.326781	2.836566	2.688189	3.085953
2.956466	0.451131	1.180731	1.755739	-1.833492	1.371952	0.157724	0.07009	0.790087	1.132444	0.854747	1.959368	3.094878	3.381852	3.428974	3.698054
3.010776	0.529385	1.263003	1.735577	-1.742329	1.49572	0.437124	0.326561	0.527169	0.897918	0.67113	1.829684	2.948201	3.192443	3.291134	3.653058
2.810847	0.224645	1.14501	1.658491	-1.879594	1.353754	0.176196	0.183626	0.292844	0.511402	0.200289	1.548208	2.644949	3.064463	2.998548	3.428282
2.916871	0.591912	1.329639	1.829383	-1.742262	1.442609	0.333922	0.304101	0.345744	0.720792	0.302343	1.678256	2.178174	2.744659	2.744533	3.137266
3.356088	1.00476	1.641604	2.089457	-1.742184	1.42044	0.200364	0.123021	0.167196	0.528928	0.018392	1.446824	2.285358	2.811694	2.831251	3.130277
3.098915	0.727591	1.575203	2.012304	-1.971898	1.1849	-0.165669	-0.097101	0.101058	0.387479	-0.194605	1.318935	2.631107	3.038541	3.203773	3.499231
