fnirSoft:	Exported Text File
Version:	4.2
ExportDate:	12/18/2023 11:14:37 AM
VariableInfo
Name:	oxygraph9.hbr.Block1
Size:	2118 x 16
Type:	Numeric
Content:	Hemoglobin
Date:	12/18/2023 11:14:26 AM
Notes:	Deoxygenated-hemoglobin concentration changes data saved by Oxygraph from file C:\Users\Anette Johansson\Documents\COBI Studio Data\friska kontroller\2011K\MALIN_2011K_1_04260836.oxy
Labels:	HBR	DATA
VariableData
Hemoglobin	Hemoglobin	Hemoglobin	Hemoglobin	Hemoglobin	Hemoglobin	Hemoglobin	Hemoglobin	Hemoglobin	Hemoglobin	Hemoglobin	Hemoglobin	Hemoglobin	Hemoglobin	Hemoglobin	Hemoglobin
Optode1	Optode2	Optode3	Optode4	Optode5	Optode6	Optode7	Optode8	Optode9	Optode10	Optode11	Optode12	Optode13	Optode14	Optode15	Optode16
0.033137	-0.156657	-0.128044	-0.180507	-0.52323	-0.319172	-0.575828	-0.28126	-0.550901	-0.215631	-0.42097	-0.185765	-0.761509	-0.591037	-0.661245	-0.835334
-0.039423	-0.389385	-0.465169	-0.309321	-0.558599	-0.360916	-0.600642	-0.310482	-0.595617	-0.24417	-0.456982	-0.287951	-0.610044	-0.428318	-0.457256	-0.72886
-0.144951	0.065479	-0.262664	-0.170724	-0.599373	-0.391119	-0.67069	-0.40938	-0.580059	-0.236741	-0.451164	-0.264048	-0.680872	-0.473061	-0.510342	-0.730959
0.273635	0.462816	-0.116527	-0.11782	-0.487825	-0.223893	-0.555326	-0.252025	-0.646746	-0.380402	-0.567091	-0.459329	-0.942851	-0.727409	-0.916388	-0.873857
0.206757	0.534005	-0.162658	-0.107025	-0.46596	-0.238986	-0.584477	-0.286907	-0.758998	-0.558021	-0.692349	-0.654008	-0.758497	-0.574742	-0.5097	-0.743394
-0.139608	0.30342	-0.366318	-0.232399	-0.634705	-0.406247	-0.658894	-0.420706	-0.579113	-0.30861	-0.527089	-0.404153	-0.65925	-0.49328	-0.402031	-0.697759
-0.449025	0.242783	-0.470682	-0.270543	-0.521794	-0.254096	-0.535918	-0.285927	-0.58643	-0.316048	-0.509948	-0.340284	-0.51363	-0.322077	0.011168	-0.546473
-0.552497	0.125515	-0.424592	-0.378455	-0.491758	-0.25003	-0.529517	-0.296313	-0.706957	-0.458152	-0.614536	-0.480666	-0.597411	-0.406342	-0.434939	-0.63403
0.133322	0.262203	-0.25623	-0.278135	-0.505416	-0.318679	-0.554411	-0.307665	-0.759745	-0.479065	-0.625932	-0.535126	-0.792033	-0.587655	-0.735102	-0.781201
-0.106124	0.153872	-0.383939	-0.316167	-0.405594	-0.215655	-0.480822	-0.230119	-0.737022	-0.493945	-0.605026	-0.464581	-0.647044	-0.48898	-0.520417	-0.73561
-0.006204	0.153872	-0.285625	-0.278135	-0.441183	-0.272784	-0.481973	-0.247188	-0.715084	-0.471632	-0.59743	-0.456899	-0.723647	-0.532966	-0.713751	-0.790722
0.199674	0.278133	-0.187285	-0.23324	-0.640279	-0.478318	-0.58173	-0.400372	-0.759745	-0.522272	-0.66392	-0.558213	-0.750526	-0.595177	-0.724422	-0.861876
-0.68861	-0.158536	-0.632201	-0.489007	-0.540894	-0.375705	-0.524363	-0.311609	-0.661393	-0.402754	-0.526966	-0.361587	-0.723647	-0.547987	-0.585539	-0.835607
-0.178083	-0.110808	-0.430775	-0.323016	-0.4426	-0.291952	-0.491876	-0.222589	-0.645118	-0.377148	-0.486877	-0.321495	-0.730361	-0.563025	-0.681792	-0.963043
-0.4531	-0.297537	-0.471338	-0.364768	-0.400233	-0.181244	-0.413665	-0.162787	-0.59288	-0.269073	-0.433491	-0.227361	-0.626847	-0.431944	-0.424295	-0.929518
-0.144951	-0.35297	-0.344339	-0.309321	-0.428972	-0.234884	-0.413665	-0.144727	-0.667939	-0.341142	-0.532716	-0.385452	-0.575693	-0.416869	-0.306152	-0.921695
-0.144951	-0.5999	-0.55754	-0.409557	-0.4426	-0.276796	-0.42677	-0.167594	-0.645118	-0.306525	-0.506008	-0.353892	-0.473397	-0.299552	-0.23208	-0.933627
0.052039	-0.370836	-0.275953	-0.261507	-0.434349	-0.272784	-0.448642	-0.148645	-0.651739	-0.336566	-0.521218	-0.408553	-0.351111	-0.182331	0.112147	-0.875459
-0.692312	-0.708938	-0.626721	-0.499493	-0.441183	-0.246002	-0.432346	-0.136299	-0.613406	-0.273312	-0.473499	-0.321495	-0.530639	-0.336684	-0.385152	-1.023684
-0.458488	-0.518696	-0.529483	-0.417017	-0.382249	-0.138575	-0.372656	-0.069584	-0.698084	-0.341142	-0.58041	-0.401606	-0.377791	-0.219893	-0.1061	-0.8972
-0.491108	-0.705349	-0.695695	-0.497052	-0.182387	-0.215185	-0.315346	-0.117342	-0.722393	-0.446786	-0.683029	-0.323157	-0.255463	-0.358971	0.004248	-0.892881
0.084574	-0.653167	-0.553659	-0.581679	0.127343	-0.1199	-0.17295	-0.096182	-0.79305	-0.69144	-0.732362	-0.357462	-0.123343	-0.37885	-0.071958	-0.906635
-0.831885	-1.272511	-1.160171	-0.935808	0.248511	-0.161964	-0.059655	-0.073314	-0.944707	-0.879382	-0.790863	-0.508582	-0.198276	-0.605434	-0.437578	-1.033213
-0.50482	-1.106546	-0.91394	-0.914339	0.31067	-0.211592	0.033044	-0.169426	-1.042541	-1.04966	-0.819018	-0.594652	-0.115566	-0.749803	-0.629632	-1.186437
-1.002986	-1.560727	-1.300178	-1.165975	0.408685	-0.157869	0.135175	-0.145672	-1.087279	-1.163034	-0.830203	-0.673757	0.016421	-0.602934	-0.332942	-1.072532
-0.600699	-1.21436	-0.902847	-1.005872	0.124277	-0.360531	-0.02774	-0.33217	-1.138278	-1.278006	-0.80573	-0.829461	-0.325686	-0.832423	-0.694995	-1.199981
-0.864171	-1.168232	-1.042539	-1.077932	0.152262	-0.150969	-0.155939	-0.229474	-1.145454	-1.339431	-0.847221	-0.999935	-0.630017	-0.882915	-1.170591	-1.250307
-0.465144	-0.715492	-0.78336	-0.893408	-0.374027	-0.580521	-0.525589	-0.588965	-1.02646	-1.211621	-0.739652	-0.891934	-0.316438	-0.459808	-0.395873	-0.992059
-1.557856	-1.132571	-1.438895	-1.210404	-0.534596	-0.475937	-0.683334	-0.59006	-1.634428	-2.067893	-1.557224	-2.158047	0.254131	0.10974	1.037413	-0.587542
-1.459121	-0.883688	-1.249723	-1.055962	-0.851943	-0.70483	-0.943774	-0.785494	-1.539089	-1.981529	-1.509576	-2.069585	0.059164	0.051357	0.809425	-0.625464
-1.783863	-0.736141	-1.316956	-1.05877	-1.040683	-0.78742	-1.022052	-0.8643	-1.155629	-1.413383	-1.079633	-1.395487	-0.40081	-0.290407	-0.102061	-0.875459
-0.823979	-0.175456	-0.911993	-0.770744	-0.854725	-0.557889	-0.991076	-0.667913	-0.873026	-1.033602	-0.805943	-0.918642	-0.583327	-0.401057	-0.215888	-0.95697
-0.552497	-0.087965	-0.684354	-0.620397	-0.871016	-0.569264	-0.971936	-0.652135	-0.754082	-0.879086	-0.743435	-0.803286	-0.473697	-0.307122	0.00829	-0.890758
0.373293	0.273641	-0.312343	-0.411031	-0.988499	-0.655974	-1.03533	-0.761504	-0.70955	-0.753333	-0.624229	-0.617392	-0.618817	-0.381421	-0.304452	-0.982638
-0.415631	-0.250402	-0.650391	-0.59951	-0.809639	-0.421683	-0.937156	-0.595605	-0.650497	-0.647929	-0.580773	-0.563465	-0.797835	-0.561365	-0.5807	-1.13414
0.232719	0.096612	-0.278532	-0.386824	-0.948605	-0.595631	-1.033237	-0.734618	-0.583142	-0.556819	-0.484033	-0.399533	-0.828328	-0.576192	-0.665471	-1.172885
-0.486145	-0.349442	-0.667992	-0.555069	-0.817907	-0.44825	-0.956266	-0.607726	-0.643247	-0.697577	-0.628174	-0.62581	-0.991109	-0.745344	-0.971481	-1.275261
-0.07273	0.015593	-0.472776	-0.461677	-0.928705	-0.572972	-0.988945	-0.658655	-0.62876	-0.606524	-0.569479	-0.548327	-0.893504	-0.6202	-0.79308	-1.194192
-0.006204	-0.028382	-0.461465	-0.43066	-0.928705	-0.569192	-1.002605	-0.662336	-0.485541	-0.375637	-0.381214	-0.290245	-1.080342	-0.838556	-1.211184	-1.352536
0.232719	0.333745	-0.196634	-0.330615	-0.804664	-0.436766	-0.938139	-0.522757	-0.55305	-0.524508	-0.531279	-0.53225	-0.84142	-0.546556	-0.655132	-1.120553
-0.415631	-0.135158	-0.540855	-0.461189	-0.831163	-0.451868	-0.934921	-0.526385	-0.551956	-0.441148	-0.474123	-0.493435	-1.054118	-0.779318	-1.159403	-1.288946
0.166541	0.284111	-0.223648	-0.319262	-0.925748	-0.493511	-0.945472	-0.552651	-0.51969	-0.422369	-0.485219	-0.522859	-0.817477	-0.539158	-0.611769	-1.058344
-0.278004	0.008878	-0.597869	-0.454	-0.710002	-0.291952	-0.869079	-0.394272	-0.38913	-0.247115	-0.32256	-0.279258	-0.850283	-0.568777	-0.663721	-1.048647
0.033137	0.338662	-0.274139	-0.263076	-0.904322	-0.463144	-0.933817	-0.529269	-0.350334	-0.247115	-0.337757	-0.318372	-0.771786	-0.509803	-0.545715	-0.988209
0.06662	0.265378	-0.210225	-0.269981	-0.62329	-0.265195	-0.861626	-0.387688	-0.388089	-0.29657	-0.41629	-0.461174	-0.920255	-0.620778	-0.66231	-1.050773
0.489422	0.338662	-0.010904	-0.147631	-0.760468	-0.421337	-0.936015	-0.492009	-0.317794	-0.276613	-0.381639	-0.388906	-0.847971	-0.546556	-0.503964	-0.986208
0.590139	0.284111	-0.093525	-0.207294	-0.725424	-0.41372	-0.94341	-0.51064	-0.233528	-0.162694	-0.243443	-0.216167	-0.89811	-0.608164	-0.674137	-1.042789
0.347688	0.223901	-0.063771	-0.214203	-0.683624	-0.341433	-0.910489	-0.505871	-0.188176	-0.133195	-0.22441	-0.185765	-0.861083	-0.600748	-0.653314	-1.089483
0.280275	0.012341	-0.15111	-0.25939	-0.620079	-0.299536	-0.886063	-0.447771	-0.272533	-0.254483	-0.304994	-0.327023	-0.995911	-0.672018	-1.001555	-1.167131
0.556656	0.242354	-0.029251	-0.211054	-0.710531	-0.398501	-0.914739	-0.505871	-0.196687	-0.125832	-0.220607	-0.185765	-0.736767	-0.475124	-0.495719	-1.04483
0.38126	0.018635	-0.093525	-0.266794	-0.65523	-0.341433	-0.942308	-0.518013	-0.365023	-0.324943	-0.372236	-0.437434	-0.858795	-0.595678	-0.655132	-1.147718
0.631968	0.210989	0.076655	-0.18659	-0.703799	-0.398501	-0.939156	-0.557452	-0.334584	-0.290276	-0.337757	-0.350868	-0.813081	-0.551405	-0.677834	-1.132344
-0.308368	-0.269784	-0.331672	-0.395013	-0.788753	-0.485912	-0.975198	-0.621908	-0.273624	-0.197571	-0.232413	-0.209735	-0.758641	-0.502231	-0.69842	-1.138128
-0.345059	-0.187828	-0.378671	-0.447113	-0.733603	-0.409944	-0.914739	-0.517136	-0.280975	-0.183828	-0.243806	-0.224918	-0.950031	-0.666866	-0.981804	-1.242475
-0.378721	-0.175456	-0.390136	-0.443551	-0.76861	-0.444148	-0.983704	-0.592919	-0.378754	-0.277736	-0.322264	-0.357462	-0.769521	-0.512159	-0.622143	-1.101144
0.07193	-0.000139	-0.297121	-0.346376	-0.795475	-0.421337	-0.948798	-0.574391	-0.354721	-0.293748	-0.300922	-0.33264	-0.83715	-0.512159	-0.706913	-1.081718
0.139523	-0.044094	-0.285625	-0.332554	-0.70527	-0.356625	-0.940275	-0.546171	-0.431336	-0.349411	-0.366204	-0.466955	-0.627395	-0.368906	-0.356192	-0.986386
0.421829	0.179546	-0.116527	-0.25939	-0.691852	-0.352951	-0.934904	-0.53015	-0.325171	-0.262944	-0.306766	-0.342233	-0.725834	-0.425772	-0.431231	-1.025365
0.173185	0.031304	-0.274139	-0.349991	-0.70527	-0.341433	-0.951922	-0.582488	-0.302031	-0.25667	-0.291261	-0.318372	-0.587761	-0.326758	-0.064384	-0.921972
-0.482509	-0.219077	-0.517135	-0.454	-0.621658	-0.303532	-0.906239	-0.51984	-0.332552	-0.270338	-0.295081	-0.349845	-0.738946	-0.425772	-0.451969	-1.025365
-0.178083	-0.02245	-0.344339	-0.388475	-0.648509	-0.311103	-0.886063	-0.531055	-0.316806	-0.278904	-0.306545	-0.388906	-0.75864	-0.433179	-0.462351	-1.050643
-0.111905	-0.006912	-0.321502	-0.374744	-0.620079	-0.25003	-0.854175	-0.495532	-0.300112	-0.216826	-0.248548	-0.300154	-0.967988	-0.686863	-0.907	-1.213556
0.133322	0.065479	-0.251199	-0.339877	-0.536229	-0.192941	-0.821214	-0.414065	-0.286258	-0.208202	-0.225545	-0.278203	-0.754343	-0.494942	-0.537162	-1.075903
0.199674	0.112149	-0.152953	-0.263671	-0.578171	-0.276796	-0.874375	-0.48337	-0.323271	-0.273929	-0.240875	-0.269549	-0.75864	-0.457864	-0.655132	-1.072106
0.166541	0.140741	-0.111798	-0.259907	-0.683624	-0.284372	-0.866936	-0.52364	-0.270476	-0.223064	-0.229376	-0.270577	-0.782647	-0.482523	-0.729363	-1.122533
-0.68861	-0.200272	-0.419331	-0.440231	-0.726895	-0.341804	-0.914739	-0.576866	-0.231465	-0.159629	-0.196449	-0.206342	-0.622934	-0.346698	-0.529088	-1.046866
-0.046072	0.070491	-0.269239	-0.32613	-0.702382	-0.292473	-0.935214	-0.508634	-0.190484	-0.318674	-0.412293	-0.29555	-0.725834	-0.708179	-0.721116	-1.285085
0.125807	-0.324733	-0.164387	-0.482169	-0.405594	-0.238409	-0.712786	-0.506768	-0.29538	-0.527831	-0.54043	-0.547406	-0.627282	-0.865979	-0.506067	-1.369469
0.232719	-0.429401	-0.040747	-0.626737	-0.14692	-0.166098	-0.503762	-0.489918	-0.194045	-0.487336	-0.475641	-0.468763	-0.730299	-0.890181	-0.601404	-1.309909
-0.4531	-0.604499	-0.337934	-0.753345	-0.123081	-0.215655	-0.421653	-0.518013	-0.071059	-0.40145	-0.451164	-0.391967	-0.585527	-0.776213	-0.332942	-1.198033
-0.552497	-0.479069	-0.267758	-0.787388	0.000498	-0.142668	-0.303987	-0.446846	-0.132954	-0.536378	-0.58632	-0.571952	-0.448863	-0.61783	-0.009176	-1.03902
-1.224868	-0.728269	-0.522702	-0.886178	0.06767	-0.119264	-0.214225	-0.386759	-0.132954	-0.537638	-0.63178	-0.601389	-0.501777	-0.610277	-0.006254	-1.021352
-0.755136	-0.627193	-0.407005	-0.821522	0.024529	-0.12689	-0.218645	-0.445069	-0.102841	-0.488566	-0.590093	-0.507658	-0.636682	-0.681667	-0.177291	-1.091574
-1.224868	-0.743826	-0.586143	-0.87958	0.140241	-0.003611	-0.127342	-0.320839	-0.103706	-0.432029	-0.575005	-0.500064	-0.428941	-0.500037	0.240009	-0.947192
-0.686254	-0.572583	-0.377887	-0.732906	0.070943	-0.110989	-0.180562	-0.370281	-0.102021	-0.429778	-0.58041	-0.489079	-0.533795	-0.597239	0.034319	-1.018137
-0.583494	-0.50217	-0.348746	-0.736516	0.188721	0.032135	-0.114463	-0.297734	-0.063524	-0.330936	-0.494792	-0.339377	-0.474169	-0.536306	0.156217	-0.989144
-0.446314	-0.415778	-0.319582	-0.678298	0.160834	-0.033654	-0.136736	-0.31993	-0.108802	-0.40564	-0.523165	-0.408553	-0.467426	-0.49652	0.068181	-0.918414
-0.240593	-0.340977	-0.167899	-0.623219	0.148381	-0.080181	-0.172455	-0.330081	-0.170697	-0.477546	-0.585993	-0.503058	-0.45395	-0.441642	0.222835	-0.859434
0.07193	-0.147444	-0.050613	-0.53693	-0.039488	-0.292881	-0.280182	-0.471214	-0.185825	-0.528492	-0.608837	-0.526201	-0.240021	-0.290386	0.580638	-0.745189
-0.308368	-0.356708	-0.290394	-0.606041	0.114657	-0.12688	-0.188692	-0.346233	-0.12393	-0.392142	-0.507857	-0.424678	-0.535019	-0.509578	0.003926	-0.911525
-0.10169	-0.226198	-0.120575	-0.58885	0.005163	-0.242616	-0.268193	-0.471214	-0.200972	-0.48505	-0.578375	-0.503058	-0.528243	-0.526723	0.014865	-0.919197
-0.446314	-0.463089	-0.261183	-0.644026	0.099239	-0.142038	-0.215822	-0.401246	-0.162463	-0.456606	-0.538342	-0.447793	-0.432074	-0.431944	0.224377	-0.857649
-0.169647	-0.257837	-0.143983	-0.61298	0.184918	-0.072354	-0.229546	-0.350092	-0.154892	-0.490973	-0.530714	-0.471585	-0.553992	-0.580138	-0.007735	-1.014667
-0.206842	-0.166719	-0.097211	-0.592174	0.017966	-0.234365	-0.313231	-0.526943	-0.279042	-0.610268	-0.646886	-0.644586	-0.331143	-0.326798	0.421687	-0.833417
0.455671	-0.063259	0.00882	-0.5058	-0.068803	-0.292212	-0.383334	-0.568301	-0.218053	-0.537168	-0.551721	-0.456899	-0.389166	-0.396553	0.478157	-0.882741
-0.274435	-0.289556	-0.132274	-0.599106	0.103419	-0.118694	-0.334402	-0.463901	-0.318598	-0.663556	-0.66392	-0.606155	-0.548857	-0.527644	0.145399	-0.967148
0.037997	-0.174485	-0.102797	-0.557748	-0.128515	-0.357169	-0.422121	-0.6279	-0.264613	-0.558021	-0.526966	-0.410077	-0.522077	-0.497745	0.078989	-0.955296
-0.514271	-0.234171	-0.231949	-0.675043	0.001263	-0.21495	-0.379133	-0.540247	-0.219551	-0.54169	-0.525122	-0.410908	-0.511139	-0.495492	0.201154	-0.990885
-0.135623	-0.098745	-0.091066	-0.574967	-0.049024	-0.284083	-0.379133	-0.575202	-0.288557	-0.662003	-0.589838	-0.505154	-0.816113	-0.759352	-0.25962	-1.136047
-0.067848	-0.126697	-0.132274	-0.616292	-0.005726	-0.241834	-0.399934	-0.545968	-0.33428	-0.684302	-0.618334	-0.544165	-0.566449	-0.497745	0.300489	-0.953488
0.139523	-0.035148	0.085389	-0.533411	0.008248	-0.226447	-0.38664	-0.558687	-0.357457	-0.718308	-0.61074	-0.575494	-0.761211	-0.702928	-0.194013	-1.1301
-0.274435	-0.408206	-0.272892	-0.70926	-0.050364	-0.272466	-0.398574	-0.611965	-0.204566	-0.540293	-0.462267	-0.325	-0.57066	-0.514943	0.222835	-0.986725
-0.278004	-0.156657	-0.132274	-0.547385	-0.066535	-0.334012	-0.458034	-0.71878	-0.202996	-0.8612	-0.875383	-0.672904	-0.725049	-0.949243	-0.260111	-1.358973
-0.957032	-1.089743	-0.441944	-1.112637	0.206	-0.310897	-0.298271	-0.796202	-0.133747	-1.099057	-0.972791	-0.85961	-0.837408	-1.084555	-0.477109	-1.4567
-0.552497	-0.971461	-0.214455	-1.1528	0.35472	-0.307212	-0.259216	-0.847684	-0.16386	-1.109245	-0.856548	-0.795683	-0.782595	-1.019635	-0.444878	-1.397443
-0.282927	-0.983205	-0.232172	-1.256573	0.405916	-0.245798	-0.211171	-0.760354	-0.125419	-0.985494	-0.76421	-0.686543	-0.738417	-0.891316	-0.412729	-1.312876
0.166541	-0.829464	-0.009254	-1.156147	0.457136	-0.238079	-0.212759	-0.684787	-0.170697	-0.941733	-0.74535	-0.731712	-0.686058	-0.853409	-0.195512	-1.263338
-0.755136	-1.120348	-0.406915	-1.347037	0.420126	-0.191978	-0.224783	-0.654404	-0.12393	-0.840603	-0.63923	-0.613832	-0.723647	-0.819609	-0.303928	-1.209484
0.06662	-0.674632	0.108731	-1.109172	0.376053	-0.222939	-0.245762	-0.641724	-0.023311	-0.673827	-0.530768	-0.401606	-0.951676	-0.99539	-0.671407	-1.335896
-0.619199	-1.020997	-0.331226	-1.280546	0.376053	-0.257593	-0.232322	-0.629698	-0.022531	-0.641244	-0.540257	-0.447793	-0.684745	-0.708445	-0.128858	-1.081896
-0.957032	-0.978861	-0.342881	-1.284199	0.377448	-0.176798	-0.223371	-0.599922	-0.177023	-0.74226	-0.648845	-0.628171	-0.702203	-0.676413	-0.139694	-1.048794
-0.345059	-0.824978	-0.143983	-1.150116	0.497195	-0.095728	-0.19931	-0.528814	-0.191721	-0.787082	-0.666126	-0.650983	-0.718497	-0.736675	-0.215806	-1.08472
-0.067848	-0.565081	0.068354	-1.038917	0.417145	-0.223468	-0.229266	-0.575202	-0.005876	-0.559546	-0.486765	-0.407213	-0.746584	-0.73854	-0.194013	-1.041203
-0.651269	-0.790611	-0.132278	-1.154511	0.417145	-0.223468	-0.250245	-0.61073	-0.106794	-0.680089	-0.559378	-0.525652	-0.512046	-0.521223	0.224377	-0.944834
-0.482509	-0.58058	-0.020189	-1.052567	0.439936	-0.16171	-0.224783	-0.534529	-0.11441	-0.672621	-0.559378	-0.501892	-0.547256	-0.498631	0.157681	-0.920895
-0.583494	-0.658365	-0.132278	-1.133975	0.343005	-0.261748	-0.26529	-0.629073	-0.021795	-0.537168	-0.440849	-0.336929	-0.629537	-0.602703	0.036715	-0.997692
-1.293019	-0.880066	-0.338019	-1.238818	0.432761	-0.196504	-0.236801	-0.581534	-0.021795	-0.544623	-0.442739	-0.336205	-0.629537	-0.634825	-0.062241	-1.048794
-0.923	-0.806245	-0.208867	-1.20846	0.365716	-0.304178	-0.272814	-0.611335	-0.147325	-0.662003	-0.56696	-0.534502	-0.644362	-0.676413	-0.106427	-1.081896
-0.652682	-0.701135	-0.096856	-1.150715	0.28448	-0.338796	-0.343046	-0.693048	-0.170697	-0.669431	-0.540258	-0.487009	-0.695471	-0.68393	-0.215806	-1.113353
-0.278004	-0.615514	-0.031974	-1.089864	0.328666	-0.327534	-0.338582	-0.681068	-0.202277	-0.675323	-0.555509	-0.550513	-0.542157	-0.502978	0.201154	-0.969555
-0.788531	-0.833164	-0.214466	-1.157549	0.430114	-0.176798	-0.292687	-0.547279	-0.248875	-0.739001	-0.591757	-0.605014	-0.563981	-0.502978	0.089788	-1.047815
-0.516081	-0.576647	-0.067397	-1.090546	0.405916	-0.145779	-0.385303	-0.59488	-0.319269	-0.805242	-0.624088	-0.676405	-0.775902	-0.661392	-0.216221	-1.107381
-0.617336	-0.380731	-0.014222	-1.040164	0.271128	-0.242103	-0.478858	-0.689127	-0.181262	-0.682977	-0.479163	-0.489079	-0.707595	-0.604747	-0.139694	-1.014035
-0.308368	-0.162664	0.157841	-0.938273	0.166692	-0.314931	-0.510086	-0.75406	-0.149595	-0.725692	-0.481042	-0.465327	-0.703525	-0.578082	-0.237902	-0.986837
-0.206842	-0.142606	0.16341	-0.917591	0.290879	-0.218903	-0.464325	-0.660754	-0.124653	-0.638288	-0.365968	-0.376993	-0.672647	-0.530843	-0.041273	-0.949185
-0.583494	-0.266131	0.050906	-1.037145	0.23298	-0.292212	-0.486334	-0.671443	-0.177619	-0.710884	-0.463832	-0.510768	-0.683435	-0.49111	-0.183769	-0.962818
-1.159275	-0.476609	-0.273503	-1.189884	0.275278	-0.21495	-0.446745	-0.584941	-0.123253	-0.608667	-0.421641	-0.479958	-0.720978	-0.513688	-0.27091	-0.903859
-1.058914	-0.167013	-0.208867	-1.068798	0.310418	-0.103289	-0.436726	-0.532433	-0.153637	-0.562739	-0.412048	-0.46388	-0.660867	-0.428826	-0.053267	-0.806278
-1.360976	-0.139258	-0.31437	-0.994661	0.184918	-0.20725	-0.493092	-0.555863	-0.07572	-0.479143	-0.337091	-0.400136	-0.797324	-0.500784	-0.281718	-0.891034
-0.685293	0.450432	-0.031974	-0.754715	0.103419	-0.272466	-0.561166	-0.609079	-0.100512	-0.468516	-0.354465	-0.401606	-0.70251	-0.431098	-0.074819	-0.861244
-0.514271	0.369354	-0.096856	-0.747749	0.235499	-0.149559	-0.523162	-0.544542	-0.101244	-0.438634	-0.352604	-0.410077	-0.750719	-0.497745	-0.162181	-0.900565
-0.548387	0.553214	-0.020189	-0.709797	0.176376	-0.188063	-0.554411	-0.574391	-0.093691	-0.502869	-0.398639	-0.449222	-0.801383	-0.520162	-0.107215	-0.926145
-1.024798	0.214749	-0.278981	-0.819674	0.139878	-0.276285	-0.614794	-0.633194	-0.025005	-0.408823	-0.335317	-0.363245	-0.739932	-0.497745	-0.162181	-0.933882
-0.274435	0.676337	0.210486	-0.606041	0.024982	-0.349067	-0.697926	-0.760354	-0.125419	-0.529718	-0.425495	-0.481421	-0.620951	-0.44559	-0.021009	-0.943456
-0.719408	0.210301	-0.249855	-0.781818	0.162386	-0.226503	-0.622282	-0.645243	-0.033429	-0.407479	-0.302723	-0.302108	-0.876044	-0.684691	-0.563373	-1.152875
-0.10169	0.767327	0.26411	-0.554172	0.061403	-0.352798	-0.680564	-0.755354	-0.048468	-0.450715	-0.352604	-0.38034	-0.878746	-0.780339	-0.670953	-1.228878
-0.753617	0.165725	-0.161614	-0.778027	0.146867	-0.28404	-0.666363	-0.704625	0.02106	-0.428429	-0.304543	-0.341236	-0.773256	-0.679438	-0.466356	-1.16809
-0.345059	0.449609	0.245678	-0.747387	0.309335	-0.364228	-0.511865	-0.804605	0.095292	-0.780272	-0.704464	-0.734272	-0.499677	-0.521975	-0.207481	-1.159803
-0.583494	-0.247	-0.143983	-1.210404	0.562899	-0.195953	-0.360699	-0.67653	0.064077	-0.84796	-0.712145	-0.750161	-0.482014	-0.539198	-0.186147	-1.159803
-0.240593	-0.23473	0.073702	-1.313779	0.316434	-0.352757	-0.494334	-0.839701	0.007762	-0.81279	-0.651008	-0.758479	-0.450997	-0.571081	-0.088574	-1.076144
-0.10169	-0.226198	0.00882	-1.416365	0.262649	-0.394686	-0.553678	-0.8285	0.014454	-0.756988	-0.54985	-0.595553	-0.539698	-0.593121	-0.14193	-1.053045
-0.000435	0.072236	0.197035	-1.350194	0.3206	-0.306918	-0.559948	-0.782194	0.029528	-0.701096	-0.48294	-0.517112	-0.542157	-0.566145	-0.129868	-0.977247
-0.480247	-0.298171	-0.132274	-1.489065	0.282314	-0.333663	-0.604167	-0.799758	0.075658	-0.547484	-0.316197	-0.282688	-0.734375	-0.700993	-0.422941	-1.032532
0.173185	0.258814	0.238864	-1.270011	0.189224	-0.356749	-0.63463	-0.838296	0.021993	-0.585333	-0.390981	-0.390902	-0.692769	-0.652083	-0.281718	-0.967831
-0.651269	-0.171585	-0.079346	-1.409822	0.415405	-0.095886	-0.50141	-0.618752	0.029528	-0.522906	-0.371855	-0.383322	-0.777462	-0.733607	-0.542136	-1.092267
-0.000435	0.206808	0.257387	-1.196363	0.262649	-0.25331	-0.556807	-0.698241	0.225019	-0.291388	-0.200529	-0.130152	-0.763987	-0.701725	-0.531253	-1.086281
-0.067848	0.065095	0.133482	-1.240077	0.292354	-0.199555	-0.54619	-0.633194	0.163555	-0.307372	-0.213824	-0.191067	-0.821802	-0.682561	-0.553028	-1.071177
-0.034097	0.186475	0.294287	-1.166459	0.453968	-0.010733	-0.431141	-0.48721	0.109626	-0.393944	-0.319768	-0.379435	-0.718497	-0.638895	-0.335929	-1.003343
-0.308368	-0.12625	0.015351	-1.247832	0.411528	-0.056921	-0.437964	-0.508987	0.125676	-0.359404	-0.304327	-0.370908	-0.907439	-0.759352	-0.822721	-1.098302
-0.067848	0.116511	0.300821	-1.102979	0.435815	-0.029788	-0.391522	-0.4718	0.048857	-0.440095	-0.412183	-0.526797	-0.773578	-0.619777	-0.41214	-0.92169
-0.345059	0.116511	0.247035	-1.146985	0.39169	-0.107244	-0.413585	-0.524494	0.174723	-0.28404	-0.259905	-0.337699	-0.759118	-0.558965	-0.477859	-0.905113
-0.169647	0.245418	0.295295	-1.100458	0.554196	0.110028	-0.306498	-0.383287	0.175513	-0.299025	-0.285015	-0.368547	-0.645823	-0.429813	-0.270453	-0.781863
0.037997	0.212199	0.283376	-1.083682	0.280899	-0.188709	-0.392441	-0.529488	0.245964	-0.234333	-0.215426	-0.217888	-0.518796	-0.292615	-0.051321	-0.658125
-0.030143	0.290215	0.361174	-1.036345	0.420126	-0.053087	-0.325526	-0.4718	0.213712	-0.25284	-0.211655	-0.235057	-0.421143	-0.215481	0.202547	-0.578325
-0.098652	0.251669	0.259505	-1.101287	0.22857	-0.250402	-0.373012	-0.553665	0.160201	-0.311225	-0.230932	-0.257351	-0.487666	-0.240475	-0.029509	-0.644305
-0.92379	-0.170531	-0.150437	-1.300594	0.374598	-0.060863	-0.273139	-0.442586	0.191588	-0.233009	-0.176715	-0.200771	-0.334095	-0.120586	0.358346	-0.575086
-0.822312	-0.308361	-0.191537	-1.277118	0.390255	-0.037783	-0.262494	-0.446762	0.222193	-0.239191	-0.205816	-0.169791	-0.374781	-0.14133	0.147805	-0.599654
-0.237971	-0.015673	0.092465	-1.124921	0.469736	0.028379	-0.195215	-0.311609	0.175513	-0.240486	-0.21353	-0.224813	-0.475391	-0.222162	0.026355	-0.618111
-0.064351	-0.015673	0.104317	-1.094401	0.381681	-0.045593	-0.218897	-0.363026	0.231445	-0.199538	-0.155416	-0.136268	-0.641887	-0.377702	-0.303355	-0.710186
0.075851	0.189132	0.270683	-0.988914	0.33062	-0.069051	-0.262247	-0.421061	0.214549	-0.162064	-0.190402	-0.209323	-0.528243	-0.231877	-0.01798	-0.639595
-0.272272	-0.13164	-0.091067	-1.178998	0.322094	-0.057115	-0.253288	-0.445352	0.21534	-0.134646	-0.128412	-0.129342	-0.479453	-0.254865	0.026355	-0.671824
-0.685778	-0.236079	-0.114782	-1.202559	0.285283	-0.180919	-0.290705	-0.47534	0.223768	-0.164687	-0.168992	-0.136268	-0.717526	-0.4084	-0.358383	-0.808103
-0.755038	-0.416711	-0.215319	-1.256481	0.33062	-0.099815	-0.274242	-0.433897	0.239117	-0.142149	-0.145849	-0.113852	-0.597251	-0.337459	0.026355	-0.733029
-0.375737	-0.20312	0.056843	-1.158373	0.36042	-0.13468	-0.269765	-0.422453	0.043776	-0.372651	-0.364077	-0.445997	-0.649788	-0.39686	-0.281411	-0.845861
-0.133046	-0.208961	0.027213	-1.124072	0.374598	-0.025963	-0.254949	-0.411774	0.12184	-0.243217	-0.21353	-0.303822	-0.547256	-0.326213	-0.04041	-0.771239
0.427545	0.053274	0.390243	-1.005218	0.323529	-0.119085	-0.313231	-0.458908	0.183925	-0.16955	-0.134293	-0.186123	-0.505299	-0.236091	0.025795	-0.701177
-0.341154	-0.399916	0.027213	-1.184923	0.242772	-0.223468	-0.362482	-0.552982	0.097514	-0.262944	-0.24061	-0.336205	-0.512046	-0.268702	-0.084109	-0.778902
0.006969	-0.171585	0.312661	-1.042576	0.256958	-0.207892	-0.331322	-0.488877	0.112826	-0.247968	-0.18455	-0.257351	-0.635104	-0.36238	-0.226756	-0.861013
-0.236795	-0.367465	0.068728	-1.124072	0.279583	-0.196504	-0.368567	-0.499574	0.089174	-0.276554	-0.219362	-0.281329	-0.597251	-0.347078	-0.138946	-0.809294
0.285548	-0.13485	0.33631	-1.04574	0.271128	-0.207892	-0.39688	-0.511682	-0.012205	-0.363627	-0.294664	-0.438802	-0.552601	-0.316528	-0.138946	-0.835163
-0.062292	-0.362497	0.157841	-1.103536	0.271128	-0.173133	-0.41768	-0.528814	0.003088	-0.356128	-0.252184	-0.328467	-0.456507	-0.263243	0.114057	-0.772832
0.427545	-0.04277	0.359914	-0.984726	0.264045	-0.146124	-0.405762	-0.504622	-0.036352	-0.384643	-0.265709	-0.368547	-0.656546	-0.450478	-0.357816	-0.914126
-0.582595	-0.503843	-0.031974	-1.184159	0.189224	-0.230691	-0.474146	-0.564395	0.002432	-0.342591	-0.225111	-0.320734	-0.576935	-0.360796	-0.138946	-0.835163
-0.135623	-0.202293	0.121718	-1.065762	0.37151	-0.045284	-0.368937	-0.423947	-0.014197	-0.347214	-0.273471	-0.338515	-0.367126	-0.162483	0.269397	-0.682977
-0.135623	-0.174485	0.16341	-1.042127	0.268238	-0.107113	-0.406079	-0.471048	0.016933	-0.28404	-0.18455	-0.227361	-0.387355	-0.177603	0.236524	-0.701177
0.14436	-0.178694	0.324491	-0.971083	0.245621	-0.145678	-0.455073	-0.530187	0.102895	-0.184535	-0.101221	-0.108057	-0.516182	-0.26243	0.003926	-0.748583
-0.098652	-0.150921	0.18772	-0.991553	0.189224	-0.218903	-0.4979	-0.57646	0.04124	-0.270439	-0.18831	-0.250462	-0.591777	-0.416869	-0.346867	-0.911104
0.2125	-0.114695	0.235194	-0.991258	0.285283	-0.161092	-0.502325	-0.611965	0.104458	-0.207046	-0.10479	-0.138886	-0.587725	-0.424404	-0.346867	-0.9822
-0.480247	-0.455934	0.039065	-1.15328	0.374598	-0.072354	-0.448967	-0.511682	0.025993	-0.320094	-0.15532	-0.227361	-0.501177	-0.344641	-0.150051	-0.853532
-0.206842	-0.321355	0.074554	-1.102611	0.36042	-0.080078	-0.474146	-0.570105	-0.021105	-0.341142	-0.199915	-0.323157	-0.421143	-0.26243	0.103128	-0.820078
-0.652682	-0.321355	0.16341	-1.119402	0.346226	-0.122565	-0.474146	-0.558039	-0.07572	-0.419132	-0.234762	-0.386247	-0.389899	-0.212509	0.092189	-0.794247
-0.549742	-0.282141	0.181534	-1.085807	0.258274	-0.165023	-0.474146	-0.575202	-0.083337	-0.441603	-0.283098	-0.472994	-0.345101	-0.157343	0.213467	-0.770056
0.314026	0.041374	0.498457	-0.91666	0.147958	-0.292212	-0.554056	-0.645093	-0.075112	-0.393668	-0.228959	-0.416983	-0.208606	-0.016754	0.547878	-0.686407
-0.342392	-0.432452	0.044947	-1.140173	0.339122	-0.103278	-0.487445	-0.515458	-0.043392	-0.353176	-0.203793	-0.336929	-0.490313	-0.275248	-0.171919	-0.899014
-0.064351	-0.12625	0.337325	-0.967836	0.207236	-0.211521	-0.525935	-0.597047	-0.004556	-0.324565	-0.184398	-0.266733	-0.430564	-0.232895	0.070282	-0.879304
-0.064351	-0.263436	0.151998	-1.028904	0.421581	-0.006593	-0.444347	-0.454953	0.082184	-0.255242	-0.135856	-0.185271	-0.434683	-0.185169	0.014865	-0.855148
0.246433	0.153898	0.408737	-0.886178	0.282154	-0.11543	-0.4874	-0.536863	0.058551	-0.276377	-0.151402	-0.178399	-0.441459	-0.19274	0.014865	-0.880901
-0.548387	-0.279905	0.098415	-1.056263	0.458631	0.075044	-0.422013	-0.418581	-0.019305	-0.36403	-0.230997	-0.296065	-0.610813	-0.370484	-0.423069	-1.01541
0.178476	-0.03289	0.319099	-0.889701	0.208412	-0.165929	-0.481517	-0.565807	0.06741	-0.279637	-0.106681	-0.144044	-0.427911	-0.167706	-0.12822	-0.874869
-0.616896	-0.307199	0.02112	-1.069965	0.311945	-0.111816	-0.49046	-0.518543	0.02838	-0.350554	-0.186389	-0.231827	-0.455021	-0.22307	-0.07317	-0.912669
-0.167535	-0.219589	0.193753	-0.954576	0.326219	-0.069051	-0.441407	-0.506958	0.130154	-0.212913	-0.052158	-0.056876	-0.406082	-0.17301	0.092189	-0.873261
-0.237971	-0.269066	0.110323	-0.981508	0.27378	-0.11543	-0.494933	-0.56047	0.129522	-0.211374	-0.071672	-0.089712	-0.658396	-0.373968	-0.466882	-1.033532
0.075851	-0.116173	0.373081	-0.903388	0.230981	-0.205098	-0.533644	-0.648554	0.106463	-0.276377	-0.118356	-0.12073	-0.482189	-0.220862	-0.084109	-0.892973
-0.133046	-0.454365	0.122219	-0.981508	0.377448	0.016572	-0.425034	-0.519528	0.052005	-0.379213	-0.172801	-0.231137	-0.706901	-0.416061	-0.509989	-1.06063
0.216853	-0.330293	0.223343	-0.937261	0.267871	-0.162389	-0.478898	-0.61342	0.005251	-0.373363	-0.190221	-0.191493	-0.665208	-0.43129	-0.553801	-1.065215
-0.272272	-0.433284	0.039065	-1.005218	0.305995	-0.092552	-0.344758	-0.560013	-0.06504	-0.453506	-0.308222	-0.294754	-0.685666	-0.456099	-0.499841	-1.050261
-0.098652	-0.449355	0.157841	-0.97467	0.28448	-0.170233	-0.327039	-0.565807	-0.127838	-0.501206	-0.410199	-0.374966	-0.491807	-0.335908	-0.21577	-0.908054
0.14436	-0.385193	0.205182	-0.909961	0.336989	-0.100396	-0.280899	-0.559582	-0.082204	-0.446413	-0.383256	-0.273605	-0.283298	-0.167706	0.16973	-0.745331
0.358662	-0.123125	0.288969	-0.859044	0.469931	-0.018436	-0.163325	-0.477512	-0.183608	-0.530166	-0.417841	-0.337699	-0.217848	-0.12232	0.380215	-0.647582
-0.027614	-0.362497	0.015351	-0.967836	0.507142	0.024386	-0.101419	-0.43594	-0.214626	-0.607828	-0.473374	-0.400136	-0.363845	-0.267686	0.014865	-0.731568
-0.167535	-0.222455	0.157841	-0.954178	0.455568	-0.080529	-0.115125	-0.441731	-0.299871	-0.664505	-0.517351	-0.479295	-0.429235	-0.340191	-0.106015	-0.789492
-0.822312	-0.606094	-0.144108	-1.093003	0.366887	-0.150295	-0.136325	-0.494887	-0.338763	-0.670244	-0.545975	-0.535126	-0.265482	-0.12232	0.269397	-0.635423
-0.098652	-0.542336	0.009426	-1.004856	0.366887	-0.177315	-0.143804	-0.518543	-0.400772	-0.768205	-0.597448	-0.605561	-0.495795	-0.367246	-0.139131	-0.818485
-0.169647	-0.459014	0.103579	-1.004683	0.196216	-0.281592	-0.231286	-0.636979	-0.370387	-0.653516	-0.526902	-0.512082	-0.357043	-0.254895	-0.029509	-0.788195
0.2125	-0.474746	0.156976	-0.943777	0.328666	-0.12688	-0.170805	-0.548911	-0.408744	-0.747502	-0.557433	-0.534502	-0.354422	-0.282169	0.024857	-0.777773
-0.514271	-0.779304	-0.220218	-1.112637	0.394378	-0.08422	-0.157153	-0.513755	-0.316852	-0.540254	-0.400701	-0.314612	-0.280708	-0.174835	0.102038	-0.718337
-0.308368	-0.615514	-0.108888	-1.068787	0.357328	-0.099815	-0.19486	-0.548911	-0.316852	-0.58359	-0.425569	-0.322303	-0.321526	-0.237483	0.058527	-0.722694
-0.923	-0.906848	-0.331226	-1.213423	0.290503	-0.16951	-0.215968	-0.56047	-0.447441	-0.698524	-0.534543	-0.542212	-0.325686	-0.247365	0.091174	-0.728752
-0.651269	-0.853263	-0.272892	-1.163247	0.350169	-0.096163	-0.187387	-0.494887	-0.408744	-0.636178	-0.469547	-0.431696	-0.228933	-0.152283	0.322151	-0.626754
-0.549742	-0.615514	-0.161727	-1.082306	0.269025	-0.181582	-0.243278	-0.565386	-0.369977	-0.624704	-0.454228	-0.360114	-0.437354	-0.297199	-0.150539	-0.734813
-0.135623	-0.533612	0.050294	-0.970887	0.328666	-0.127489	-0.235847	-0.523481	-0.323954	-0.573661	-0.446567	-0.37627	-0.284955	-0.137272	0.233661	-0.592956
-0.686254	-0.747979	-0.237797	-1.12617	0.314311	-0.135332	-0.235847	-0.588281	-0.331552	-0.552784	-0.419731	-0.344652	-0.350246	-0.222409	0.091174	-0.629347
-0.412472	-0.560935	-0.038038	-1.045369	0.462752	0.01247	-0.167884	-0.446098	-0.392814	-0.639824	-0.507862	-0.486412	-0.314713	-0.18751	0.135888	-0.613811
-0.787509	-0.799594	-0.319837	-1.112961	0.322601	-0.151034	-0.244973	-0.546434	-0.354375	-0.567886	-0.452319	-0.407859	-0.273918	-0.182361	0.179436	-0.641501
-0.480247	-0.612563	-0.173411	-1.072566	0.277301	-0.200758	-0.255263	-0.552975	-0.238918	-0.416246	-0.367921	-0.274433	-0.265482	-0.170041	0.291266	-0.579986
-0.583494	-0.506267	-0.073296	-1.028521	0.328666	-0.16171	-0.232517	-0.529708	-0.254129	-0.46738	-0.404371	-0.360828	-0.143735	-0.067046	0.491226	-0.509507
-0.067848	-0.376487	0.086362	-0.926908	0.307127	-0.185124	-0.253599	-0.541336	-0.246046	-0.526093	-0.435107	-0.39947	-0.066988	0.013395	0.59154	-0.483381
-1.124709	-0.720939	-0.231949	-1.129735	0.404017	-0.096163	-0.19486	-0.458186	-0.192234	-0.46738	-0.352509	-0.242757	-0.193169	-0.117233	0.313096	-0.567791
-0.449025	-0.490496	-0.08507	-1.028521	0.328666	-0.16171	-0.26104	-0.547554	-0.191721	-0.41955	-0.327457	-0.202445	-0.190709	-0.104723	0.356645	-0.523435
-1.358625	-0.88956	-0.454856	-1.224359	0.478399	0.008752	-0.19486	-0.440271	-0.168857	-0.396864	-0.306281	-0.131172	-0.127735	0.000607	0.523901	-0.43107
-1.057749	-0.655499	-0.197037	-1.096174	0.44838	-0.026255	-0.227973	-0.458186	-0.153637	-0.353176	-0.225341	-0.044381	-0.154873	-0.072144	0.469395	-0.481626
-1.057749	-0.831194	-0.454856	-1.170531	0.366887	-0.096163	-0.227973	-0.499387	-0.200387	-0.387707	-0.296731	-0.148543	-0.048968	-0.006892	0.727407	-0.415282
-0.652682	-0.678166	-0.079226	-1.062205	0.352491	-0.153915	-0.277557	-0.564992	-0.207463	-0.425427	-0.252255	-0.091639	-0.094199	-0.064645	0.60468	-0.441487
-0.585804	-0.801993	-0.031974	-1.075544	0.473559	-0.045593	-0.249055	-0.493558	-0.230808	-0.480788	-0.317819	-0.195655	-0.073785	-0.019742	0.626586	-0.396967
-0.552497	-0.642769	-0.008414	-1.031675	0.466317	-0.099815	-0.203957	-0.475665	-0.160703	-0.432984	-0.227074	-0.034586	-0.173551	-0.122278	0.460101	-0.438025
-0.552497	-0.513918	-0.049779	-1.088954	0.489154	-0.08422	-0.225065	-0.535126	-0.083337	-0.265782	-0.093511	0.205088	-0.159886	-0.139819	0.33644	-0.438025
-0.790933	-0.525739	-0.132274	-1.125949	0.496404	-0.060863	-0.227973	-0.511848	-0.215084	-0.471626	-0.265709	-0.067495	-0.253054	-0.202276	0.292513	-0.442481
-0.68861	-0.545243	-0.179175	-1.132657	0.569964	0.01287	-0.196208	-0.477011	-0.129658	-0.378639	-0.13984	0.076782	-0.444776	-0.346928	-0.160948	-0.541196
-0.278004	-0.222532	0.18697	-0.981266	0.44959	-0.087806	-0.274326	-0.531082	-0.136782	-0.500071	-0.223157	-0.010377	-0.196769	-0.104723	0.33644	-0.403925
-0.549742	-0.254014	0.03303	-1.048614	0.433992	-0.03756	-0.272751	-0.549416	-0.152094	-0.471626	-0.163054	0.013857	-0.253054	-0.187282	0.280336	-0.385513
-1.325052	-0.592378	-0.343375	-1.193026	0.499962	0.020413	-0.289242	-0.526371	-0.097065	-0.429705	-0.08526	0.118801	-0.122441	0.025781	0.615638	-0.286383
-0.652682	-0.340977	-0.08507	-1.072181	0.508454	0.067035	-0.265284	-0.484361	-0.228933	-0.637976	-0.289243	-0.168948	-0.286341	-0.179961	0.270492	-0.434672
-0.244609	-0.040947	0.156976	-0.947765	0.479629	-0.006531	-0.256501	-0.512749	-0.057321	-0.432984	-0.145602	-0.001633	-0.412523	-0.30997	-0.171963	-0.591965
-0.516081	-0.254014	-0.08507	-1.048614	0.450737	-0.037549	-0.238722	-0.529708	-0.173912	-0.607622	-0.31057	-0.21629	-0.342577	-0.245027	0.01535	-0.507253
-0.135623	0.084747	0.205182	-0.886536	0.562735	0.040049	-0.198154	-0.404873	-0.111219	-0.539267	-0.347498	-0.247384	0.02262	0.071366	0.773712	-0.298661
-0.958091	-0.417233	-0.138541	-1.085614	0.53259	0.005113	-0.195273	-0.416517	0.006054	-0.358153	-0.209652	-0.066498	-0.159693	-0.097231	0.449086	-0.428517
-0.480247	-0.098745	0.050906	-0.997959	0.623133	0.121772	-0.133424	-0.320817	-0.072152	-0.459267	-0.331649	-0.225616	-0.191399	-0.13743	0.259468	-0.474876
-0.480247	-0.130664	-0.026063	-1.021585	0.592915	0.067259	-0.163783	-0.320817	-0.087493	-0.455403	-0.3667	-0.287615	-0.415641	-0.313126	-0.128084	-0.591965
-0.10169	-0.01077	0.127987	-0.916975	0.585678	0.024521	-0.15175	-0.3028	-0.095288	-0.455403	-0.349299	-0.311583	-0.184486	-0.112351	0.370688	-0.470384
0.07193	0.153872	0.258865	-0.862795	0.489154	-0.033743	-0.18671	-0.368018	-0.056135	-0.41147	-0.345399	-0.26433	-0.282412	-0.200316	0.14844	-0.561218
-0.067848	0.077546	0.205182	-0.886536	0.459072	-0.068644	-0.212487	-0.397687	-0.071592	-0.399961	-0.337891	-0.271397	-0.130814	-0.059707	0.404929	-0.476522
-0.034097	0.166204	0.258865	-0.83903	0.400018	-0.13468	-0.259412	-0.433194	-0.016734	-0.304231	-0.302775	-0.233349	-0.071316	-0.029377	0.617589	-0.45199
-0.446314	0.041374	0.039065	-0.926941	0.340068	-0.16171	-0.280559	-0.451129	0.054242	-0.190682	-0.221473	-0.112969	-0.38411	-0.313126	-0.128084	-0.647269
-0.10169	0.206808	0.181534	-0.859238	0.547036	0.032287	-0.184969	-0.261427	-0.000914	-0.225462	-0.252506	-0.200771	-0.26856	-0.257868	-0.00669	-0.648827
-0.17318	0.085643	0.074554	-0.869524	0.39795	-0.115011	-0.248449	-0.344654	0.038374	-0.217823	-0.266059	-0.145705	-0.311017	-0.292615	0.037352	-0.650413
0.38126	0.450432	0.348117	-0.747387	0.42794	-0.087952	-0.248449	-0.3028	-0.063773	-0.24665	-0.316556	-0.26433	-0.56593	-0.469709	-0.347359	-0.752893
-0.240593	0.097588	0.050906	-0.920198	0.294741	-0.188709	-0.278749	-0.373866	-0.102979	-0.298385	-0.374861	-0.342678	-0.283404	-0.197426	0.08124	-0.572215
0.24024	0.527762	0.306073	-0.764508	0.464002	-0.022031	-0.230137	-0.249772	-0.087493	-0.250882	-0.35111	-0.289057	-0.367199	-0.302426	-0.028947	-0.602798
-0.482509	0.218968	-0.008414	-0.893261	0.409978	0.004989	-0.202718	-0.287039	-0.173735	-0.369924	-0.470545	-0.431696	-0.430174	-0.367246	-0.050911	-0.633455
0.173185	0.442921	0.21699	-0.79817	0.180865	-0.26125	-0.32196	-0.441218	-0.064692	-0.209883	-0.2987	-0.171616	-0.314964	-0.247365	0.048338	-0.555078
-0.378721	0.093154	-0.108652	-0.950637	0.335838	-0.080078	-0.228418	-0.316643	-0.126963	-0.226512	-0.312403	-0.225616	-0.430174	-0.37479	-0.083927	-0.611955
0.139523	0.353076	0.282491	-0.787835	0.439936	0.008949	-0.21642	-0.268405	-0.165968	-0.270398	-0.389783	-0.352381	-0.5733	-0.48898	-0.412701	-0.664186
-0.651269	-0.181412	-0.155948	-0.987791	0.359691	-0.087952	-0.248449	-0.309151	-0.18919	-0.302473	-0.436626	-0.374966	-0.443996	-0.317518	-0.171963	-0.531893
-0.378721	0.190634	0.16341	-0.862469	0.389621	-0.087952	-0.253031	-0.291129	-0.103246	-0.1933	-0.359218	-0.272822	-0.156873	-0.067046	0.414653	-0.335566
-0.651269	-0.14389	-0.232559	-0.987791	0.492779	0.063306	-0.140897	-0.14248	-0.008929	-0.071758	-0.239173	-0.129342	-0.443996	-0.315301	-0.171963	-0.516471
-0.169647	0.097588	0.080602	-0.84875	0.381267	-0.041396	-0.183256	-0.238128	-0.118632	-0.19834	-0.325118	-0.279178	-0.359486	-0.295792	0.059721	-0.488679
0.110152	-0.007148	0.080602	-0.855537	0.345286	-0.103509	-0.184969	-0.231139	-0.000914	-0.044349	-0.229808	-0.128497	-0.35255	-0.238262	0.070765	-0.456179
-0.064351	0.02522	0.080602	-0.872542	0.336989	-0.176798	-0.225563	-0.249772	-0.087245	-0.096256	-0.274841	-0.199284	-0.162579	-0.09011	0.527707	-0.344561
-0.098652	0.009046	0.145979	-0.855537	0.256725	-0.231263	-0.265002	-0.290612	-0.09516	-0.160096	-0.336915	-0.279178	-0.155647	-0.064956	0.427026	-0.411287
-0.582595	-0.183125	-0.079226	-0.981015	0.181836	-0.277305	-0.305448	-0.362641	-0.008929	-0.050431	-0.212291	-0.072414	-0.422577	-0.283949	-0.094952	-0.55658
-0.410716	-0.1188	-0.096856	-0.984389	0.344177	-0.095728	-0.266081	-0.261427	-0.173605	-0.216137	-0.379208	-0.334897	-0.38411	-0.266604	0.004335	-0.54423
-0.098652	-0.014746	0.151613	-0.845447	0.189028	-0.258192	-0.308258	-0.380152	-0.032779	-0.071758	-0.231615	-0.087971	-0.489277	-0.316528	-0.314342	-0.644236
0.461846	0.017335	0.109944	-0.852216	0.344177	-0.080529	-0.275214	-0.278418	-0.150262	-0.158458	-0.289795	-0.167401	-0.433284	-0.241602	-0.072912	-0.571958
0.673262	0.246254	0.341363	-0.709458	0.320318	-0.068644	-0.264373	-0.249206	-0.158206	-0.129583	-0.264486	-0.191493	-0.314964	-0.170777	0.070282	-0.521157
0.041457	-0.01077	0.133482	-0.835188	0.158353	-0.239063	-0.345819	-0.332026	-0.150449	-0.129583	-0.29159	-0.199284	-0.363327	-0.110725	0.0818	-0.485589
-0.719408	-0.337284	-0.296343	-1.035095	0.290503	-0.08422	-0.261517	-0.230594	-0.158206	-0.14483	-0.309045	-0.191493	-0.339601	-0.122845	0.048338	-0.481028
-0.582595	-0.142606	-0.126291	-0.981015	0.29642	-0.056896	-0.271792	-0.255598	-0.158038	-0.17538	-0.328633	-0.246732	-0.297203	-0.072572	0.203564	-0.414545
-1.364807	-0.574175	-0.54762	-1.15328	0.282154	-0.091726	-0.25071	-0.249772	-0.27504	-0.290737	-0.437096	-0.382169	-0.134875	0.068852	0.527707	-0.327692
-0.92379	-0.380731	-0.226251	-1.031793	0.186983	-0.176798	-0.31847	-0.345154	-0.197063	-0.188971	-0.3404	-0.271397	-0.250764	-0.062653	0.304452	-0.392749
-0.237971	-0.154625	0.044816	-0.896311	0.246417	-0.153527	-0.325861	-0.303871	-0.236039	-0.261934	-0.406716	-0.350463	-0.092089	0.076483	0.685628	-0.268731
-0.514271	-0.198358	-0.020189	-0.997914	0.32149	-0.091726	-0.321313	-0.280034	-0.275063	-0.290737	-0.422462	-0.445493	-0.198316	0.01589	0.348648	-0.38208
-1.024798	-0.376487	-0.238048	-1.08907	0.404017	0.032287	-0.237063	-0.214241	-0.352855	-0.380975	-0.503286	-0.533394	-0.067197	0.099346	0.696672	-0.309199
-0.685293	-0.245966	-0.079226	-0.984389	0.372888	-0.080078	-0.289526	-0.275448	-0.181395	-0.173706	-0.325587	-0.25585	-0.304108	-0.044533	0.236524	-0.385513
-0.446314	-0.094938	0.009426	-0.940438	0.307127	-0.138037	-0.37357	-0.358402	-0.126963	-0.112827	-0.286234	-0.217888	-0.342577	-0.142644	0.048338	-0.522775
0.003973	-0.026759	0.169693	-0.875995	0.322601	-0.153527	-0.37357	-0.346233	-0.150262	-0.164473	-0.307646	-0.201585	-0.31793	-0.077268	0.158772	-0.431893
-0.203763	0.029394	0.199606	-0.882763	0.471203	0.001212	-0.280458	-0.232934	-0.142491	-0.114354	-0.280537	-0.193019	-0.156873	0.026088	0.291266	-0.407397
-0.10169	0.08971	0.145979	-0.86923	0.277301	-0.168807	-0.362841	-0.352605	-0.111219	-0.04281	-0.210486	-0.105212	-0.217383	-0.00167	0.257053	-0.429275
-0.651269	-0.155411	-0.114782	-0.997914	0.32149	-0.107113	-0.337339	-0.328834	-0.236136	-0.223758	-0.350445	-0.232565	-0.220197	-0.024302	0.191617	-0.473783
-0.378721	0.073618	0.021234	-0.95738	0.462752	0.024411	-0.290821	-0.209731	-0.243908	-0.260187	-0.381413	-0.279848	-0.254723	-0.062112	0.147805	-0.478196
-1.024087	-0.24302	-0.238048	-1.055283	0.372888	-0.09168	-0.340241	-0.287672	-0.064692	-0.033721	-0.196589	0.029328	-0.149979	0.056291	0.469395	-0.362811
-0.583494	-0.028012	0.039065	-0.943777	0.196216	-0.257593	-0.397386	-0.411181	-0.181871	-0.170505	-0.311178	-0.154329	0.058788	0.238456	0.896941	-0.249622
-0.412472	0.137577	0.050906	-0.913284	0.307127	-0.083973	-0.359971	-0.34568	-0.173912	-0.14323	-0.274453	-0.08197	0.081177	0.266652	0.85309	-0.260017
-0.240593	0.332547	0.181534	-0.804586	0.343005	-0.103278	-0.371892	-0.298641	-0.095691	-0.077846	-0.235538	-0.042319	-0.155647	0.053859	0.482102	-0.37764
0.139523	0.405951	0.247035	-0.756862	0.28448	-0.134277	-0.378106	-0.33351	-0.05636	-8.6E-05	-0.206554	-0.009386	-0.235984	-0.082502	0.248433	-0.473257
0.314026	0.590802	0.324491	-0.732964	0.093699	-0.33533	-0.460949	-0.50485	-0.048345	-0.030636	-0.21657	0.015815	-0.330454	-0.118369	-0.017858	-0.535036
-0.274435	0.36832	0.122219	-0.835101	0.189028	-0.227059	-0.414453	-0.392279	-0.087345	-0.047577	-0.252081	-0.094975	-0.586581	-0.337459	-0.392709	-0.664694
-0.410716	0.17341	-0.056062	-0.944095	0.309203	-0.088344	-0.364085	-0.325297	-0.09516	-0.113274	-0.300709	-0.142571	-0.31581	-0.17201	0.003982	-0.532126
0.246433	0.512606	0.330984	-0.756862	0.43731	-0.122782	-0.264006	-0.301836	-0.21262	-0.28865	-0.440524	-0.245061	-0.041944	0.00988	0.361171	-0.386428
-0.376507	-0.372661	-0.174264	-1.011435	0.630516	-0.176798	-0.107931	-0.313141	-0.244318	-0.438268	-0.432014	-0.293633	0.14876	-0.151136	0.260344	-0.53806
0.037997	-0.49266	0.086496	-1.199904	0.867305	0.047801	0.045535	-0.168874	-0.110934	-0.41369	-0.345309	-0.246732	0.249358	-0.049736	0.529043	-0.44863
-0.342392	-0.65938	-0.044132	-1.442753	0.676543	-0.072719	-0.05969	-0.306862	-0.039999	-0.32947	-0.285431	-0.158889	0.069339	-0.11296	0.338402	-0.491759
0.455671	0.129998	0.253347	-1.257091	0.533535	-0.143181	-0.084913	-0.383854	0.094051	-0.068777	-0.179341	0.087744	-0.220028	-0.316528	-0.228005	-0.673644
-0.548387	-0.257985	-0.268181	-1.47255	0.610317	-0.070619	-0.009127	-0.250969	-0.181354	-0.28134	-0.45504	-0.197985	-0.106008	-0.204776	0.081126	-0.561901
0.173185	0.369354	0.03303	-1.273445	0.815992	0.175945	0.166162	-0.082113	-0.27504	-0.320206	-0.537399	-0.206425	0.238973	0.075885	0.769202	-0.164828
-0.855466	0.022743	-0.519009	-1.442917	0.648795	0.0974	0.135092	-0.088063	-0.306196	-0.300764	-0.546901	-0.142571	0.152082	0.055927	0.598808	-0.023319
0.139523	0.871705	-0.190928	-1.149586	0.702857	0.202763	0.133079	0.027956	-0.204795	0.082546	-0.429255	-0.00669	-0.023709	-0.083367	0.392531	0.095974
0.037997	0.71065	-0.407648	-1.159525	0.771037	0.266321	0.161441	0.173022	-0.18919	0.163942	-0.336476	0.089675	-0.180973	-0.220143	0.226831	0.188661
-0.034097	0.947052	-0.413038	-1.08578	0.671804	0.219226	0.120187	0.087056	-0.438211	-0.167735	-0.470781	-0.181148	0.08772	-0.005506	1.018919	0.541442
-0.07273	1.0128	-0.459173	-1.095941	0.617781	0.180125	0.053916	0.061687	-0.391626	-0.173706	-0.323872	0.044224	0.123517	0.068195	1.324543	0.815797
-0.039423	1.389615	-0.360359	-0.974989	0.592773	0.270567	-0.077327	0.102358	-0.414868	-0.041574	-0.342582	-0.030148	-0.01657	0.047278	1.286161	0.807771
0.273635	1.657543	-0.360359	-0.887022	0.209377	-0.046119	-0.300817	-0.097255	-0.384172	0.089832	-0.428078	-0.173877	0.108117	0.259281	1.886851	1.043353
0.347688	2.024061	-0.138406	-0.774902	0.15595	-0.006901	-0.325563	-0.073771	-0.111558	0.572777	-0.267401	0.083564	-0.068122	0.162641	1.347017	0.957219
0.139523	1.957622	-0.290394	-0.845763	0.155316	0.102123	-0.353989	-0.042631	0.260843	1.116159	-0.111846	0.295134	-0.206151	0.095803	1.258943	0.949921
-0.10169	1.907563	-0.313758	-0.808108	0.154617	0.133218	-0.363155	0.061687	0.347086	1.281306	-0.175404	0.199439	-0.110987	0.253976	1.366905	1.137703
0.2125	1.876442	-0.261183	-0.763648	0.064857	0.113736	-0.332907	0.147528	0.688118	1.776715	-0.069967	0.33108	-0.425207	0.076893	0.911841	1.116218
-0.274435	1.764439	-0.366224	-0.77376	0.181836	0.361061	-0.23929	0.318886	0.541143	1.631097	-0.201651	0.111965	-0.558649	-0.028271	0.767631	1.084522
0.003973	1.747775	-0.261183	-0.722469	0.048037	0.270567	-0.287176	0.244942	0.591461	1.461793	-0.063726	0.314389	-0.382921	0.155301	1.16	1.192156
-0.240593	1.560907	-0.354547	-0.79081	-0.010171	0.172232	-0.3623	0.13566	0.309303	1.036237	-0.189047	0.119375	-0.291042	0.233989	1.388758	1.169108
-0.410716	1.384307	-0.360616	-0.804725	0.115287	0.246719	-0.31564	0.196815	0.253505	0.864519	-0.180554	0.159086	-0.252487	0.245333	1.203238	1.025546
-0.375737	1.254544	-0.390583	-0.856725	0.116137	0.281719	-0.287176	0.167067	0.149939	0.658693	-0.233321	0.070516	-0.33009	0.114221	1.028686	0.779699
-0.375737	1.16151	-0.349859	-0.877509	0.144946	0.313518	-0.292861	0.190268	-0.024209	0.373484	-0.371316	-0.107151	-0.393777	0.102301	0.68374	0.547142
-0.789811	0.785384	-0.554531	-0.983685	0.13775	0.226635	-0.33611	0.146921	-0.047902	0.408429	-0.277521	-0.002582	-0.327223	0.100179	0.687548	0.392706
-0.306666	1.072198	-0.302563	-0.856725	0.28448	0.372866	-0.323779	0.211878	-0.103088	0.309092	-0.284918	-0.011058	-0.443406	-0.034253	0.324784	0.090488
-1.026973	0.669089	-0.623331	-1.041079	0.195204	0.337314	-0.371529	0.113408	-0.103706	0.278129	-0.303716	0.020561	-0.485552	-0.117657	0.214153	-0.038996
-0.513899	0.783626	-0.512297	-0.948276	0.294741	0.353193	-0.280182	0.17605	-0.268234	-0.102365	-0.343928	-0.101403	-0.534207	-0.24323	-0.085742	-0.152239
-0.65129	0.153872	-0.760329	-1.16062	0.506769	0.388672	-0.194641	0.205101	-0.454375	-0.479065	-0.490006	-0.230493	-0.373368	-0.274244	-0.073042	-0.21969
-0.855466	-0.210408	-0.77047	-1.31437	0.52763	0.31378	-0.281783	0.055439	-0.470195	-0.47304	-0.503434	-0.198611	-0.348726	-0.274244	-0.270798	-0.307084
-0.855587	-0.443303	-1.054937	-1.424253	0.308196	0.254631	-0.347667	-0.033471	-0.500879	-0.362172	-0.484365	-0.222069	-0.506381	-0.385369	-0.566019	-0.409886
-0.652682	-0.135158	-0.90681	-1.337743	0.150171	0.207565	-0.428164	-0.027636	-0.370843	-0.075945	-0.312403	0.025402	-0.467961	-0.310568	-0.260432	-0.354056
-0.753667	-0.202293	-0.952816	-1.338506	0.0675	0.294118	-0.454847	0.026321	-0.439865	-0.149657	-0.347215	-0.022323	-0.527616	-0.254865	-0.348242	-0.340078
-0.583494	0.093556	-0.73576	-1.190978	-0.101912	0.144829	-0.527576	-0.082212	-0.478507	-0.170856	-0.408948	-0.15039	-0.499942	-0.229834	-0.205732	-0.318392
-0.378721	0.153872	-0.73576	-1.143885	-0.182632	0.097995	-0.554146	-0.088737	-0.432739	-0.063394	-0.333708	-0.078597	-0.757147	-0.450435	-0.58995	-0.444748
-0.686254	0.08971	-0.793662	-1.201614	-0.13926	0.152717	-0.540778	-0.101079	-0.333646	0.039218	-0.227107	0.096524	-0.590809	-0.281888	-0.282646	-0.374294
-0.822015	0.061515	-0.856753	-1.255463	-0.234888	0.047549	-0.591008	-0.145357	-0.348711	0.053093	-0.194177	0.10529	-0.688735	-0.353202	-0.488845	-0.439222
-0.822015	0.137862	-0.75369	-1.201614	-0.284249	0.016146	-0.652996	-0.258082	-0.402055	-0.040883	-0.246568	0.03231	-0.567065	-0.238262	-0.226756	-0.387965
-1.057749	-0.046908	-0.938263	-1.289708	-0.263071	0.074821	-0.614618	-0.217653	-0.409608	-0.134646	-0.361004	-0.134756	-0.722999	-0.353202	-0.629534	-0.535036
-1.589479	-0.190455	-1.017456	-1.362849	-0.095854	0.180382	-0.564426	-0.122271	-0.341176	-0.01093	-0.285346	-0.048218	-0.553349	-0.240475	-0.303168	-0.465494
-1.124709	-0.04277	-0.875173	-1.285767	-0.205738	0.129624	-0.599887	-0.19541	-0.286595	0.059471	-0.205868	0.104309	-0.50153	-0.177603	-0.25962	-0.460938
-1.589479	-0.254536	-1.052421	-1.369683	-0.147335	0.133488	-0.596915	-0.182304	-0.209164	0.1591	-0.079442	0.250888	-0.664451	-0.347757	-0.768309	-0.638081
-1.224868	-0.13485	-0.863496	-1.272095	-0.11103	0.219551	-0.592493	-0.1996	-0.348157	0.000536	-0.244704	0.008035	-0.545732	-0.195833	-0.423069	-0.562759
-0.89033	0.105781	-0.736965	-1.150715	-0.399657	-0.081126	-0.738334	-0.418026	-0.185825	0.157955	-0.133976	0.241999	-0.556396	-0.245865	-0.477229	-0.576609
-0.652682	0.190634	-0.569653	-1.110378	-0.125137	0.188225	-0.614618	-0.227791	-0.447077	-0.135622	-0.351759	-0.125586	-0.559509	-0.243712	-0.499059	-0.595147
-0.990515	0.02522	-0.772027	-1.201614	-0.161442	0.13731	-0.619048	-0.233585	-0.38557	-0.120421	-0.357442	-0.109904	-0.680923	-0.354727	-0.716015	-0.692209
-0.652682	0.117929	-0.581352	-1.110378	-0.326712	-0.034665	-0.695829	-0.399054	-0.285035	0.037998	-0.178849	0.179464	-0.413361	-0.130457	-0.270493	-0.551934
-0.788531	-0.06302	-0.772027	-1.140817	0.036916	0.266596	-0.515574	-0.13017	-0.461761	-0.190682	-0.367437	-0.164877	-0.325824	-0.047396	-0.106427	-0.518005
-0.382324	0.210662	-0.494171	-1.005218	-0.13121	0.148959	-0.573336	-0.25618	-0.330776	-0.044349	-0.250922	0.059975	-0.559509	-0.306854	-0.628617	-0.673644
-0.923637	-0.014746	-0.800289	-1.133975	-0.124131	0.141091	-0.586695	-0.274218	-0.346388	-0.065687	-0.247004	0.035631	-0.40561	-0.174096	-0.324999	-0.607521
-0.516081	0.19457	-0.546289	-1.025743	-0.290523	-0.031107	-0.625242	-0.368958	-0.284605	0.028936	-0.147718	0.196995	-0.479227	-0.256896	-0.65041	-0.727249
-1.293019	-0.335096	-0.921987	-1.235878	-0.173769	0.06214	-0.589865	-0.314482	-0.331141	-0.087006	-0.2663	0.035631	-0.377997	-0.133672	-0.43368	-0.644236
-0.17318	0.31945	-0.354547	-0.927172	-0.01487	0.258713	-0.521553	-0.220062	-0.423608	-0.15246	-0.297307	-0.028703	-0.332711	-0.093221	-0.314197	-0.639595
-0.855587	-0.206444	-0.840175	-1.140817	-0.160474	0.144829	-0.563066	-0.321333	-0.377238	-0.082594	-0.23735	0.052804	-0.517515	-0.254865	-0.682262	-0.77597
-0.278004	0.21771	-0.424272	-0.977903	-0.051329	0.207565	-0.521553	-0.243949	-0.400144	-0.163519	-0.313333	-0.051187	-0.43402	-0.14133	-0.476981	-0.667203
-0.345059	0.008878	-0.638559	-1.076206	-0.210941	0.058556	-0.560175	-0.332988	-0.330776	-0.076599	-0.253037	0.044906	-0.374108	-0.098706	-0.237902	-0.627317
-0.240593	0.033345	-0.482494	-0.98835	-0.311135	-0.004802	-0.579689	-0.403146	-0.22227	0.082546	-0.147908	0.18997	-0.086538	0.228838	0.156217	-0.445865
-0.516081	-0.082816	-0.586645	-1.066232	-0.173769	0.0974	-0.500994	-0.272074	-0.120992	0.219464	-0.042599	0.312739	-0.485552	-0.167966	-0.563929	-0.702586
-0.585804	0.056426	-0.49969	-0.967836	-0.020907	0.290073	-0.401223	-0.128301	-0.073564	0.24569	-0.030973	0.3541	-0.485552	-0.160252	-0.574839	-0.670342
-0.449025	0.068877	-0.511324	-1.008897	-0.005691	0.301799	-0.369954	-0.1336	-0.150967	0.177535	-0.076235	0.216743	-0.422577	-0.0945	-0.477229	-0.644236
-0.585804	0.068877	-0.586645	-1.002044	-0.100083	0.163735	-0.434274	-0.19925	-0.267528	0.015513	-0.216984	0.046659	-0.275484	0.037384	-0.18313	-0.533459
-0.278004	0.097183	-0.534623	-0.992039	-0.041306	0.226635	-0.417877	-0.175246	-0.220767	0.036977	-0.211281	0.055122	-0.24781	0.060499	-0.161394	-0.502727
-1.225426	-0.373805	-0.910267	-1.185881	-0.09296	0.187547	-0.387953	-0.151751	-0.134725	0.166187	-0.107885	0.218012	-0.457832	-0.0945	-0.509517	-0.653403
-0.923637	-0.114695	-0.650203	-1.063112	-0.187221	0.065681	-0.450659	-0.2418	-0.228698	0.075833	-0.218742	0.014326	-0.320961	0.047278	-0.150539	-0.56282
-1.39092	-0.293754	-0.891622	-1.20846	-0.049343	0.238801	-0.365458	-0.134745	-0.197831	0.106833	-0.173595	0.118759	-0.537825	-0.189238	-0.606862	-0.739154
-0.92565	-0.094938	-0.695682	-1.099822	-0.050305	0.242933	-0.359431	-0.129521	-0.112066	0.21632	-0.089633	0.232643	-0.367199	-0.038461	-0.336241	-0.619904
-1.291523	-0.214207	-0.83356	-1.137058	-0.108074	0.175945	-0.44745	-0.230594	-0.244357	0.068072	-0.202967	0.071061	-0.464756	-0.117657	-0.541819	-0.722325
-0.823979	-0.218222	-0.78206	-1.096698	-0.144494	0.168028	-0.431073	-0.200262	-0.158996	0.200821	-0.13636	0.151154	-0.530878	-0.206609	-0.693125	-0.772741
-0.790933	-0.126697	-0.718853	-1.07307	-0.078726	0.171677	-0.428164	-0.175755	-0.143252	0.169764	-0.118789	0.208098	-0.457832	-0.160252	-0.574298	-0.728433
-0.486145	-0.022921	-0.592089	-1.005218	-0.231445	0.030422	-0.4744	-0.259409	-0.228933	0.111099	-0.212291	0.069921	-0.290302	-0.030766	-0.260111	-0.612154
-1.357701	-0.380731	-0.919728	-1.164387	0.008527	0.317639	-0.360964	-0.091962	-0.135543	0.214672	-0.182987	0.150458	-0.367199	-0.104277	-0.325043	-0.648827
-0.486145	0.037079	-0.540132	-0.98835	-0.144494	0.175945	-0.402781	-0.169889	-0.150967	0.177535	-0.169377	0.174935	-0.30118	-3.1E-05	-0.107215	-0.546109
-1.024788	-0.321355	-0.793662	-1.127137	-0.136542	0.160105	-0.407275	-0.164025	-0.205832	0.122304	-0.260569	0.012012	-0.220197	0.083572	-0.030446	-0.498256
-0.755136	-0.070769	-0.522968	-1.025743	-0.210112	0.082234	-0.417615	-0.189122	-0.213255	0.11286	-0.288009	-0.035358	-0.227095	0.002189	-0.052108	-0.556692
-0.249967	0.084747	-0.540132	-0.944095	-0.129419	0.148525	-0.44745	-0.182703	-0.189844	0.155957	-0.229808	0.021184	-0.437083	-0.119682	-0.335897	-0.601212
-0.315972	0.157394	-0.383615	-0.920331	-0.172962	0.0974	-0.463815	-0.200809	-0.205296	0.14819	-0.220149	0.061994	-0.356406	-0.069291	-0.161394	-0.587364
-0.659608	-0.075576	-0.620789	-1.032097	-0.18009	0.116846	-0.471204	-0.218901	-0.236643	0.157655	-0.212291	0.037618	-0.53885	-0.237511	-0.606476	-0.7009
-0.078946	0.19234	-0.337145	-0.93043	-0.027048	0.274243	-0.416079	-0.11721	-0.298969	0.034643	-0.330796	-0.107604	-0.34756	-0.027532	-0.119115	-0.533897
-0.315972	-0.04745	-0.453263	-0.991553	-0.157935	0.12042	-0.48755	-0.206657	-0.291052	0.062097	-0.286234	-0.074969	-0.431022	-0.131535	-0.40139	-0.604411
-0.006204	0.119547	-0.313973	-0.886178	-0.252815	-0.004802	-0.536522	-0.27257	-0.221529	0.196321	-0.149765	0.126006	-0.354424	-0.065846	-0.217008	-0.566107
-0.106124	-0.138775	-0.447529	-0.937261	-0.15872	0.0974	-0.477049	-0.189716	-0.229919	0.199377	-0.167118	0.10874	-0.264015	0.045933	-0.097637	-0.5156
0.199674	0.135278	-0.313973	-0.865731	-0.15872	0.132696	-0.456235	-0.171611	-0.206986	0.214735	-0.221473	0.084345	-0.232485	0.063585	0.154387	-0.437163
-0.387267	-0.172233	-0.626422	-1.038579	-0.078726	0.238801	-0.414571	-0.123686	-0.207463	0.230075	-0.20197	0.156793	-0.480027	-0.164333	-0.325461	-0.606052
-0.486145	-0.144169	-0.53424	-0.991258	-0.123185	0.148525	-0.447303	-0.13017	-0.300263	0.17161	-0.248442	0.035631	-0.414387	-0.100874	-0.31469	-0.593857
-0.5566	-0.259341	-0.614916	-1.01823	-0.152472	0.121137	-0.438376	-0.14248	-0.354375	0.113244	-0.275529	-0.028703	-0.320141	-0.035185	-0.064038	-0.541706
-0.5566	-0.184734	-0.413096	-0.987791	-0.196779	0.117457	-0.508175	-0.185177	-0.308305	0.099419	-0.310359	0.003449	-0.285952	0.043559	-0.021009	-0.485164
0.01942	-0.197304	-0.401611	-0.930244	-0.283436	0.031267	-0.494812	-0.232934	-0.323954	0.114722	-0.312218	-0.03725	-0.376155	-0.045099	-0.238541	-0.549521
-0.594454	-0.370836	-0.672393	-1.068787	-0.174636	0.144829	-0.465135	-0.155468	-0.270336	0.188322	-0.230914	0.09057	-0.536701	-0.211071	-0.563373	-0.681302
-0.76213	-0.444807	-0.683837	-1.068787	-0.189704	0.097995	-0.497778	-0.161974	-0.300702	0.186931	-0.240664	0.099266	-0.404729	-0.130457	-0.369132	-0.611139
-1.359936	-0.631912	-0.935046	-1.213423	-0.211831	0.129457	-0.47113	-0.156916	-0.269358	0.214735	-0.225219	0.083564	-0.299616	-0.006946	-0.031752	-0.506993
-1.062592	-0.604499	-0.832591	-1.129423	-0.313337	0.01247	-0.508182	-0.228478	-0.261302	0.22096	-0.196187	0.100085	-0.48785	-0.188221	-0.40139	-0.618943
-0.458488	-0.209944	-0.401611	-0.953949	-0.269273	0.043397	-0.534821	-0.257422	-0.17551	0.358606	-0.085276	0.253886	-0.452594	-0.178399	-0.336241	-0.64491
-0.994146	-0.662666	-0.804188	-1.129423	-0.261386	0.035529	-0.514083	-0.250983	-0.214214	0.262705	-0.145693	0.181254	-0.391086	-0.117556	-0.260972	-0.610437
-0.321775	-0.324733	-0.337934	-0.896475	-0.319625	-0.096847	-0.608761	-0.346233	-0.29187	0.182459	-0.225377	0.059975	-0.335161	-0.084853	-0.174052	-0.630339
-0.92565	-0.809535	-0.775764	-1.136181	-0.175565	0.109972	-0.49188	-0.221999	-0.407562	0.056105	-0.33219	-0.116003	-0.478172	-0.232895	-0.434153	-0.733856
-0.387267	-0.515478	-0.459143	-0.977631	-0.363582	-0.088984	-0.583632	-0.358402	-0.260909	0.231801	-0.198217	0.141816	-0.296926	-0.044533	-0.152628	-0.58449
-0.217094	-0.775146	-0.574615	-1.008043	-0.132197	0.156822	-0.517056	-0.185861	-0.292647	0.228647	-0.219331	0.074898	-0.490776	-0.276323	-0.520212	-0.754641
0.265679	-0.570628	-0.279296	-0.852216	-0.088794	0.235235	-0.454805	-0.096009	-0.331141	0.147059	-0.283308	0.011312	-0.21615	-0.026941	0.077312	-0.56271
-0.659608	-1.052119	-0.60342	-1.055283	-0.160474	0.074347	-0.497778	-0.154783	-0.400144	0.100787	-0.364608	-0.076565	-0.337898	-0.122845	-0.053267	-0.599014
-0.013283	-0.75056	-0.192197	-0.862469	-0.117056	0.12534	-0.493333	-0.101079	-0.323141	0.153189	-0.304618	0.011312	-0.428089	-0.186024	-0.27091	-0.655334
-0.217094	-1.067229	-0.430113	-0.964104	-0.22597	0.000414	-0.530377	-0.214871	-0.22271	0.30123	-0.161124	0.203928	-0.602106	-0.318601	-0.541819	-0.701177
-0.006204	-0.914072	-0.191155	-0.88272	-0.167553	0.07068	-0.502225	-0.161273	-0.237976	0.271885	-0.21165	0.122782	-0.608955	-0.375997	-0.455338	-0.707249
-0.006204	-1.001919	-0.342881	-0.906493	-0.11609	0.07068	-0.506673	-0.149666	-0.206986	0.207058	-0.225219	0.089675	-0.615807	-0.335908	-0.476981	-0.693455
0.092934	-0.671393	-0.255429	-0.862327	0.01563	0.246978	-0.439898	-0.084418	-0.246046	0.216151	-0.23878	0.000249	-0.81622	-0.594944	-0.950622	-0.861013
-0.552497	-0.79795	-0.505858	-1.025282	-0.086764	0.148959	-0.534821	-0.210424	-0.330457	0.07486	-0.341799	-0.197985	-0.49863	-0.252576	-0.336241	-0.632803
0.232719	-0.048159	-0.062246	-0.770438	-0.065491	0.215641	-0.533343	-0.1996	-0.25326	0.148593	-0.277768	-0.094975	-0.422415	-0.212509	-0.217008	-0.614664
-0.552497	-0.435941	-0.470828	-0.967562	0.108887	0.416001	-0.448967	-0.051435	-0.25326	0.193162	-0.225377	0.00112	-0.619605	-0.427724	-0.509423	-0.762345
-0.111905	0.039586	-0.144685	-0.794305	-0.029032	0.298078	-0.503748	-0.139582	-0.284605	0.165389	-0.248604	-0.031783	-0.401979	-0.179961	-0.184777	-0.610437
-0.006204	-0.110044	-0.284713	-0.879325	-0.01487	0.290215	-0.494884	-0.122271	-0.261741	0.182043	-0.256226	-0.056876	-0.298518	-0.084622	0.053942	-0.534435
-0.382324	-0.169215	-0.284713	-0.90309	-0.11103	0.203898	-0.517211	-0.171605	-0.362374	0.07323	-0.314247	-0.144851	-0.479453	-0.247365	-0.272847	-0.677918
-0.585804	-0.333866	-0.464854	-0.970887	-0.321237	0.047549	-0.636735	-0.343635	-0.385197	0.056505	-0.324091	-0.207079	-0.497085	-0.239839	-0.175494	-0.64604
-0.622433	-0.181843	-0.407005	-0.99115	-0.256972	0.125654	-0.594054	-0.2675	-0.393169	0.050353	-0.304618	-0.159611	-0.631184	-0.342395	-0.488295	-0.747642
-0.486145	-0.256272	-0.459143	-1.031675	-0.148402	0.258781	-0.585243	-0.255237	-0.53913	-0.087006	-0.437666	-0.366603	-0.625528	-0.369479	-0.499707	-0.73139
-1.059638	-0.429401	-0.655141	-1.09569	-0.309083	0.075044	-0.61629	-0.280564	-0.424309	0.035078	-0.381736	-0.200004	-0.391605	-0.16229	-0.101173	-0.611976
-0.659608	-0.469487	-0.597869	-1.068768	-0.360066	0.040001	-0.636879	-0.33937	-0.44785	0.065609	-0.416213	-0.256577	-0.521471	-0.26243	-0.283509	-0.737391
-0.692312	-0.527753	-0.546096	-1.008131	-0.296186	0.117923	-0.61629	-0.286285	-0.524628	0.022778	-0.494995	-0.407213	-0.49442	-0.207352	-0.262194	-0.681606
-0.25662	-0.408424	-0.448502	-1.00141	-0.482594	-0.057115	-0.657454	-0.368752	-0.432739	0.057983	-0.397041	-0.240322	-0.683612	-0.359707	-0.488295	-0.796714
-0.184305	-0.51246	-0.314994	-0.89999	-0.413029	-0.029788	-0.667853	-0.311609	-0.547301	-0.051989	-0.495291	-0.390503	-0.732023	-0.392071	-0.638805	-0.798497
0.010659	-0.592617	-0.287325	-0.961155	-0.205876	0.218888	-0.526841	-0.152334	-0.463396	0.036562	-0.473838	-0.383999	-0.590475	-0.254895	-0.304861	-0.715258
0.010659	-0.692978	-0.287325	-0.937497	-0.284686	0.10602	-0.551831	-0.193164	-0.424309	0.113244	-0.406629	-0.272087	-0.614777	-0.312246	-0.466925	-0.820032
-0.021627	-0.808045	-0.223648	-0.967855	-0.277762	0.10602	-0.55621	-0.162787	-0.370387	0.228647	-0.373799	-0.265084	-0.421143	-0.099688	-0.012087	-0.665573
-0.994146	-1.283407	-0.672393	-1.142751	-0.313649	0.028369	-0.573741	-0.185644	-0.207985	0.395762	-0.263789	-0.065547	-0.535019	-0.18751	-0.283509	-0.754831
-0.458488	-1.196277	-0.471338	-1.051917	-0.31242	0.036165	-0.558845	-0.183924	-0.138436	0.507352	-0.211531	-0.001633	-0.495795	-0.175286	-0.184777	-0.725393
-1.160198	-1.494578	-0.88387	-1.216642	-0.298546	0.086729	-0.529421	-0.13718	-0.12262	0.551077	-0.106698	0.136461	-0.579711	-0.260129	-0.391342	-0.752994
-0.859988	-1.355315	-0.643666	-1.129423	-0.398047	-0.041529	-0.558845	-0.213453	-0.122032	0.563999	-0.112518	0.10529	-0.583703	-0.275248	-0.542302	-0.802709
-0.76213	-1.211424	-0.534662	-1.062033	-0.289216	0.078875	-0.481929	-0.068715	-0.206555	0.435007	-0.235042	-0.085711	-0.503861	-0.18287	-0.29418	-0.682137
-0.127311	-0.853376	-0.246423	-0.920198	-0.143726	0.180382	-0.441831	0.034647	-0.25326	0.391424	-0.268125	-0.133434	-0.637981	-0.30339	-0.520417	-0.756296
-0.928991	-1.245775	-0.683837	-1.12617	-0.179878	0.13731	-0.453735	-0.013344	-0.369294	0.244068	-0.382691	-0.33246	-0.75531	-0.360796	-0.681579	-0.730427
-0.361133	-0.868523	-0.385061	-0.947192	-0.172892	0.153002	-0.468723	0.009764	-0.307885	0.304507	-0.33219	-0.205261	-0.675056	-0.322147	-0.692523	-0.777321
-1.424756	-1.329011	-0.746812	-1.186753	-0.26716	0.063222	-0.476219	-0.056327	-0.276577	0.369664	-0.287677	-0.164877	-0.647741	-0.251338	-0.563373	-0.695107
-0.892777	-1.017175	-0.476655	-1.045369	-0.41697	-0.131819	-0.613276	-0.210424	-0.23034	0.399186	-0.258479	-0.077195	-0.397905	0.035929	-0.042505	-0.486974
-1.751328	-1.453299	-0.9465	-1.213863	-0.231122	0.063222	-0.525029	-0.049709	-0.167425	0.505279	-0.235259	-0.036571	-0.640141	-0.220143	-0.552636	-0.70402
-0.994146	-1.07075	-0.591934	-1.035322	-0.26716	0.055388	-0.554451	-0.060465	-0.236643	0.454777	-0.272322	-0.124417	-0.366547	0.096572	0.034319	-0.485164
-0.7251	-1.127852	-0.540096	-1.025282	-0.281119	0.031857	-0.521953	0.006521	-0.314073	0.391498	-0.400562	-0.316006	-0.581581	-0.091034	-0.412161	-0.607721
-0.387267	-0.898871	-0.360916	-0.91678	-0.390023	-0.026255	-0.550058	-0.048085	-0.111736	0.684206	-0.194507	-0.004419	-0.511357	-0.038461	-0.205395	-0.533897
-1.423816	-1.340131	-0.729717	-1.113472	-0.439808	-0.084714	-0.588264	-0.077109	-0.095691	0.718798	-0.173303	0.00413	-0.354424	0.108936	0.211999	-0.415282
-0.692312	-0.995016	-0.442229	-1.001604	-0.274138	0.039706	-0.539551	0.013905	-0.071917	0.701102	-0.153922	0.052804	-0.33669	0.152046	0.201154	-0.427506
-0.790933	-1.112669	-0.436099	-0.981508	-0.352084	-0.042538	-0.565994	-0.021093	0.006667	0.797773	-0.12482	0.053457	-0.377997	0.055001	0.135888	-0.504381
-0.178083	-0.84472	-0.215263	-0.855749	-0.323089	0.027657	-0.521629	0.003682	0.014711	0.735555	-0.197243	-0.026898	-0.342577	0.082532	0.180678	-0.535053
-1.058007	-1.26105	-0.684112	-1.090546	-0.380126	-0.066186	-0.548164	-0.056187	0.085773	0.846672	-0.150634	0.070516	-0.290302	0.115678	0.202547	-0.522775
-0.139608	-0.952033	-0.243795	-0.903822	-0.248972	0.06214	-0.517056	0.011514	0.157053	0.921656	-0.119381	0.110822	-0.251815	0.131159	0.213467	-0.550566
-0.822015	-1.212611	-0.626925	-1.087518	-0.321237	-0.035504	-0.521494	-0.000867	0.125669	0.913602	-0.131248	0.079023	-0.224262	0.195242	0.179436	-0.533897
-0.345059	-0.855921	-0.267073	-0.941389	-0.292171	-0.051343	-0.567373	-0.04322	0.101904	0.852858	-0.11759	0.103456	-0.346495	0.033918	-0.029509	-0.650413
-0.923	-1.336685	-0.696888	-1.152489	-0.119168	0.129039	-0.466694	0.100949	0.109752	0.86896	-0.127291	0.079023	-0.583436	-0.185574	-0.499059	-0.824617
-0.17318	-0.860062	-0.331226	-0.96206	-0.081739	0.155788	-0.45624	0.126583	-0.032091	0.661124	-0.264487	-0.105838	-0.290302	0.143282	0.168563	-0.599953
-0.788531	-1.232721	-0.678743	-1.131808	-0.219829	0.085087	-0.493333	0.048074	-0.024278	0.685346	-0.24296	-0.073535	-0.307102	0.160978	0.102038	-0.563422
-0.349105	-0.994229	-0.156287	-1.130925	-0.124131	-0.001377	-0.474036	-0.024394	0.014711	0.648922	-0.127291	0.063094	-0.275484	0.166567	0.233661	-0.526995
-0.519278	-1.337702	-0.435895	-1.353138	-0.247208	-0.154787	-0.551243	-0.180654	-0.032779	0.578485	-0.158541	0.038697	-0.31403	0.059275	0.112892	-0.641501
0.026929	-1.0671	-0.179522	-1.127137	-0.356514	-0.236077	-0.608992	-0.253088	-0.126963	0.506467	-0.179681	-0.026394	-0.440211	-0.0555	-0.172257	-0.711708
-0.822015	-1.559533	-0.736965	-1.380542	-0.335336	-0.1149	-0.542316	-0.193372	-0.072764	0.523944	-0.175407	0.037004	-0.496201	-0.129276	-0.281375	-0.787961
0.092934	-0.93287	-0.185787	-1.086187	-0.343229	-0.083082	-0.574884	-0.211982	-0.104008	0.486298	-0.251245	-0.027451	-0.552078	-0.210712	-0.379408	-0.819972
-0.89033	-1.482224	-0.650203	-1.285767	-0.256972	0.003136	-0.503719	-0.140596	-0.04922	0.605567	-0.17122	0.100857	-0.840196	-0.480754	-0.844552	-0.993336
-0.349105	-1.036346	-0.307948	-1.103536	-0.207858	0.074347	-0.497778	-0.117855	-0.13495	0.550353	-0.235538	-0.019548	-0.871237	-0.476107	-0.961495	-1.014337
-0.95861	-1.457604	-0.730455	-1.288716	-0.287051	-0.023219	-0.534821	-0.123686	-0.20495	0.41137	-0.432014	-0.307548	-0.573929	-0.200795	-0.487817	-0.829079
-0.589473	-1.256973	-0.41266	-1.106646	-0.530769	-0.283802	-0.667876	-0.344181	0.005676	0.75217	-0.128302	0.156793	-0.708837	-0.362702	-0.725773	-0.929515
-1.058007	-1.590608	-0.748642	-1.296568	-0.551853	-0.256835	-0.701876	-0.332026	-0.048881	0.676288	-0.192667	0.059975	-0.691434	-0.34724	-0.574839	-0.903685
-0.354478	-1.082358	-0.22056	-1.015247	-0.286057	-0.015336	-0.601404	-0.129521	-0.298489	0.339946	-0.439319	-0.348221	-0.277725	0.025248	0.1903	-0.653667
-0.7251	-1.509743	-0.638559	-1.187935	-0.314193	-0.050415	-0.555546	-0.129521	-0.150967	0.492443	-0.307258	-0.133434	-0.746885	-0.414298	-0.855481	-0.975013
-0.7251	-1.30982	-0.371981	-1.120303	-0.414505	-0.16332	-0.580704	-0.213059	-0.345213	0.284535	-0.49317	-0.41219	-0.417283	-0.083367	-0.106427	-0.751412
-0.790933	-1.607189	-0.586645	-1.23496	-0.314193	-0.081126	-0.528907	-0.13017	-0.291052	0.418946	-0.359596	-0.245061	-0.584592	-0.304849	-0.509517	-0.89441
-0.523811	-1.347525	-0.360359	-1.116599	-0.335336	-0.069708	-0.54962	-0.171611	-0.360769	0.343809	-0.431466	-0.356109	-0.57774	-0.256896	-0.422817	-0.856452
-0.25662	-1.400273	-0.377887	-1.119758	-0.205738	0.062808	-0.48301	-0.045843	-0.268234	0.46611	-0.316877	-0.164877	-0.462409	-0.139212	-0.226716	-0.783405
-0.053996	-1.171177	-0.139572	-1.038579	-0.264004	0.000414	-0.51118	-0.1062	-0.260909	0.491212	-0.306934	-0.141288	-0.369314	-0.052743	-0.052108	-0.740877
-0.321775	-1.328955	-0.290845	-1.102979	-0.24292	0.008282	-0.527464	-0.076389	-0.106214	0.693219	-0.104745	0.219601	-0.583919	-0.24323	-0.434008	-0.891478
-0.659608	-1.400273	-0.493789	-1.184159	-0.487899	-0.174623	-0.568852	-0.220062	-0.160207	0.588202	-0.227435	0.052102	-0.379004	-0.032954	-0.007735	-0.693455
-0.892777	-1.654745	-0.534623	-1.254637	-0.030115	0.117457	-0.438468	0.013905	-0.198902	0.318453	-0.278379	-0.189011	-0.444776	-0.17201	-0.292267	-0.854929
-0.589473	-1.347525	-0.302071	-1.187249	-0.129419	0.003136	-0.494812	-0.159328	-0.17551	0.296759	-0.222689	-0.155997	-0.629524	-0.36238	-0.595998	-0.958134
-0.217094	-1.135871	-0.302071	-1.177343	-0.041306	0.077135	-0.4874	-0.129521	-0.213847	0.273488	-0.203845	-0.12303	-0.437083	-0.193081	-0.16098	-0.791109
-0.790933	-1.344249	-0.564458	-1.292609	-0.003832	0.135423	-0.484452	-0.093206	-0.229215	0.222434	-0.223678	-0.138606	-0.489277	-0.233593	-0.193825	-0.788265
-0.655478	-1.166395	-0.512297	-1.2731	-0.047602	0.154885	-0.496317	-0.129521	-0.159757	0.262705	-0.201622	-0.034825	-0.621491	-0.376497	-0.521862	-0.86848
-1.588276	-1.32691	-0.703682	-1.424491	-0.100083	0.155788	-0.518528	-0.179372	-0.214214	0.248784	-0.215236	-0.067037	-0.530878	-0.295477	-0.401705	-0.790401
-0.89033	-1.096101	-0.454856	-1.236991	-0.237877	-0.068479	-0.617646	-0.286433	-0.314845	0.102434	-0.332348	-0.203203	-0.705057	-0.491607	-0.802279	-0.894467
-0.89033	-0.884705	-0.402413	-1.210611	-0.019925	0.210726	-0.540753	-0.150388	-0.199351	0.28864	-0.158166	0.061369	-0.597288	-0.410855	-0.542834	-0.856106
-0.482509	-0.836167	-0.320933	-1.15367	-0.165839	0.056662	-0.626414	-0.281886	-0.307885	0.113244	-0.310319	-0.139303	-0.770983	-0.476107	-0.844552	-0.916722
-1.058007	-1.005994	-0.466686	-1.217527	-0.130284	0.178847	-0.595471	-0.276782	-0.301186	0.102302	-0.357846	-0.157009	-0.687832	-0.435754	-0.639509	-0.925453
-0.589473	-0.779304	-0.255443	-1.152489	-0.006712	0.301342	-0.552766	-0.176545	-0.30877	0.174417	-0.280163	-0.076565	-0.898835	-0.623215	-1.132091	-1.095066
-0.589473	-0.895738	-0.38411	-1.22035	-0.015992	0.321455	-0.538207	-0.190503	-0.324428	0.145272	-0.324713	-0.124417	-0.688189	-0.381688	-0.6389	-0.93702
-0.5566	-0.891234	-0.296343	-1.169191	-0.197708	0.179615	-0.591297	-0.314927	-0.348157	0.096067	-0.378406	-0.189559	-0.622081	-0.274078	-0.411962	-0.859529
-1.358154	-1.279392	-0.795456	-1.374999	-0.226881	0.136309	-0.591297	-0.302697	-0.25641	0.242885	-0.219442	0.066217	-0.553349	-0.197099	-0.422941	-0.816919
-0.491108	-0.96035	-0.325456	-1.21632	-0.183601	0.136309	-0.579471	-0.260979	-0.333646	0.141616	-0.30851	-0.102784	-0.557204	-0.224223	-0.466356	-0.844315
-0.892777	-1.106936	-0.488802	-1.230097	-0.16951	0.203396	-0.554451	-0.237224	-0.333646	0.178263	-0.296837	-0.119142	-0.341984	-0.037459	-0.010274	-0.702844
-0.892777	-0.991482	-0.424769	-1.260509	-0.148402	0.215457	-0.545667	-0.214274	-0.209821	0.330471	-0.147525	0.11309	-0.516231	-0.163161	-0.423436	-0.800302
-1.456776	-1.268846	-0.651769	-1.39568	-0.031258	0.341361	-0.480615	-0.13056	-0.209164	0.263259	-0.200088	0.00112	-0.3461	-0.067301	-0.065488	-0.664803
-0.994146	-1.018125	-0.424769	-1.300594	-0.133244	0.219514	-0.529421	-0.226569	-0.323954	0.166787	-0.248828	-0.134071	-0.373371	-0.042133	-0.010274	-0.637125
-0.859988	-1.033682	-0.448263	-1.246732	-0.052412	0.231227	-0.521953	-0.190503	-0.254129	0.180682	-0.194507	-0.030148	-0.481016	-0.17301	-0.206256	-0.713325
-0.321775	-0.743826	-0.114538	-1.118039	-0.044253	0.199667	-0.515836	-0.189665	-0.246046	0.186931	-0.169377	-0.04581	-0.441806	-0.11296	-0.085608	-0.678033
-0.659608	-0.944812	-0.308084	-1.226096	-0.037182	0.223345	-0.502617	-0.166715	-0.237976	0.251677	-0.132429	-0.013719	-0.351585	-0.09011	-0.042505	-0.685741
-0.827285	-0.913794	-0.296343	-1.242742	-0.153399	0.082234	-0.539551	-0.261767	-0.207463	0.268343	-0.165452	-0.078597	-0.410419	-0.11296	-0.008821	-0.658125
-0.991655	-1.211361	-0.611534	-1.344694	-0.073603	0.203773	-0.514486	-0.184772	-0.199351	0.251677	-0.183275	-0.125586	-0.477074	-0.155548	-0.22777	-0.743746
-0.315972	-0.743826	-0.126291	-1.104285	-0.261386	0.026917	-0.586645	-0.355136	-0.245231	0.182459	-0.228396	-0.180628	-0.329818	-0.035185	-0.030446	-0.702446
-0.990515	-1.315864	-0.646957	-1.358478	-0.01487	0.183857	-0.524657	-0.165033	-0.098032	0.374021	-0.107231	0.035631	-0.402576	-0.114065	-0.084672	-0.798689
-0.349105	-0.817569	-0.179175	-1.118039	-0.100967	0.183241	-0.51118	-0.185861	-0.175097	0.275086	-0.166056	-0.011651	-0.569599	-0.258645	-0.40122	-0.90091
-0.449025	-0.942873	-0.278981	-1.176085	-0.01487	0.28594	-0.460862	-0.096775	-0.236906	0.220754	-0.250351	-0.187304	-0.788345	-0.434112	-0.813246	-1.021442
-0.311487	-0.671328	-0.214466	-1.105228	-0.187987	0.092031	-0.555546	-0.23754	0.004262	0.545778	0.012027	0.256454	-0.492491	-0.196991	-0.204793	-0.885946
-0.000435	-0.487853	-0.238048	-1.095391	-0.115185	0.209878	-0.482944	-0.110741	-0.197831	0.276207	-0.256558	-0.122354	-0.286341	0.014227	0.025795	-0.77127
-0.278004	-0.471883	-0.3316	-1.119049	0.088821	0.467522	-0.3714	0.051909	-0.221529	0.285735	-0.252081	-0.12303	-0.468527	-0.117657	-0.324999	-0.849113
-0.585804	-0.574175	-0.360616	-1.149597	-0.02801	0.336288	-0.430942	-0.025611	-0.152094	0.361902	-0.21657	-0.035358	-0.335668	-0.028621	0.036715	-0.784983
-0.619199	-0.622084	-0.436511	-1.163434	-0.036119	0.316645	-0.451768	-0.037975	-0.17551	0.347924	-0.204755	-0.027451	-0.367199	-0.069291	-0.16098	-0.836859
-0.585804	-0.503843	-0.348885	-1.102311	-0.233045	0.092031	-0.563066	-0.230594	-0.005193	0.579451	-0.050305	0.229359	-0.416367	-0.127392	-0.16098	-0.856645
-0.755136	-0.595055	-0.540985	-1.170358	-0.334539	0.002004	-0.595609	-0.27893	-0.129658	0.372619	-0.169377	0.091418	-0.684262	-0.329998	-0.553801	-1.00427
-0.552497	-0.519853	-0.477072	-1.156514	-0.321237	0.057739	-0.552611	-0.25618	-0.160703	0.350892	-0.202623	0.027763	-0.847124	-0.493206	-0.899294	-1.101192
-1.258174	-0.974379	-0.933718	-1.406841	-0.285123	0.08155	-0.543713	-0.220681	-0.0605	0.493207	-0.069796	0.195126	-0.622081	-0.325945	-0.553028	-0.994683
-0.790933	-0.714164	-0.494171	-1.213449	-0.226881	0.108914	-0.506673	-0.202607	-0.215084	0.241074	-0.263038	-0.181148	-0.767578	-0.431472	-0.844552	-1.097578
-1.424227	-1.32704	-0.921987	-1.439765	-0.154387	0.179615	-0.506673	-0.202607	-0.175969	0.276633	-0.21657	-0.060204	-0.757356	-0.37582	-0.854141	-1.054948
-0.552497	-0.84219	-0.413038	-1.206551	-0.305463	-0.0366	-0.586695	-0.285298	-0.260909	0.179228	-0.292811	-0.188059	-0.674442	-0.304849	-0.746609	-1.050261
-1.457622	-1.49351	-0.894005	-1.463111	-0.015992	0.301799	-0.402733	-0.040746	-0.059856	0.388052	-0.103293	0.116617	-0.57015	-0.229834	-0.411962	-0.992826
-0.72183	-1.169433	-0.517556	-1.277118	-0.06764	0.262538	-0.431007	-0.089462	-0.191253	0.261171	-0.214796	-0.131813	-0.736731	-0.393041	-0.810779	-1.10899
-1.258174	-1.513481	-0.783737	-1.412167	-0.045357	0.290073	-0.373012	-0.01091	-0.199846	0.256489	-0.228012	-0.117114	-0.784909	-0.439172	-0.88676	-1.145381
-0.755136	-1.227015	-0.465352	-1.260509	-0.240996	0.038359	-0.524482	-0.207808	-0.199351	0.262705	-0.183275	-0.084443	-0.625787	-0.270214	-0.574298	-1.006402
-1.124709	-1.596114	-0.783737	-1.419061	-0.176554	0.113229	-0.444347	-0.130846	-0.167856	0.282829	-0.1424	-0.011651	-0.680923	-0.331798	-0.563929	-1.048869
-1.325052	-1.529153	-0.755488	-1.409487	-0.119168	0.144829	-0.435452	-0.107611	-0.191721	0.262705	-0.200819	-0.132845	-0.663881	-0.350896	-0.757454	-1.08943
-0.957032	-1.580499	-0.656737	-1.358478	-0.075831	0.223345	-0.410206	-0.072056	-0.253671	0.174745	-0.251631	-0.164366	-0.594544	-0.34321	-0.660562	-1.056327
-0.72183	-1.232721	-0.377911	-1.23985	-0.112136	0.188013	-0.414651	-0.096775	-0.200387	0.253049	-0.182987	-0.077872	-0.531971	-0.302887	-0.509517	-0.962812
-0.652682	-1.169433	-0.424769	-1.267403	-0.264004	0.004008	-0.511123	-0.252298	-0.262226	0.130006	-0.260888	-0.181716	-0.396702	-0.151136	-0.292535	-0.806276
-1.258174	-1.268846	-0.720296	-1.384629	-0.126204	0.117457	-0.49036	-0.216919	-0.285035	0.143868	-0.192951	-0.085053	-0.486895	-0.247198	-0.43368	-0.77597
-0.686254	-1.032463	-0.448263	-1.277118	-0.264004	0.000414	-0.551102	-0.336508	-0.238918	0.137641	-0.202623	-0.101403	-0.30807	-0.063689	-0.051321	-0.688826
-1.259177	-1.122034	-0.628253	-1.344694	-0.119168	0.148959	-0.484447	-0.193832	-0.200387	0.269629	-0.081566	0.058388	-0.284585	-0.017614	-0.052108	-0.613489
-0.956842	-1.011264	-0.512297	-1.337808	-0.328284	-0.074078	-0.592515	-0.359595	-0.285035	0.085601	-0.247691	-0.196879	-0.566403	-0.28367	-0.466328	-0.800573
-0.652682	-0.88956	-0.453643	-1.266237	-0.277186	-0.043421	-0.588073	-0.353199	-0.246046	0.142414	-0.206909	-0.156479	-0.459447	-0.148993	-0.35783	-0.713148
-0.278004	-0.644281	-0.325456	-1.205493	-0.211831	0.08155	-0.54222	-0.31146	-0.207463	0.142414	-0.214796	-0.148095	-0.605173	-0.310568	-0.649726	-0.875021
-0.652682	-0.793511	-0.430257	-1.289708	-0.255127	0.014532	-0.583632	-0.352605	-0.245615	0.096339	-0.230586	-0.171424	-0.507521	-0.193081	-0.487817	-0.803368
-0.415631	-0.734846	-0.342881	-1.222161	-0.16247	0.132696	-0.531892	-0.264543	-0.199846	0.163942	-0.185414	-0.099692	-0.469284	-0.135106	-0.314197	-0.777401
-1.158192	-1.016755	-0.725299	-1.408005	-0.234888	0.065681	-0.545186	-0.263868	-0.185203	0.143868	-0.196885	-0.060204	-0.258713	0.008588	0.24617	-0.644236
-0.855587	-0.830724	-0.441944	-1.290894	-0.241928	0.061216	-0.599881	-0.292839	-0.254129	0.163942	-0.199026	-0.091292	-0.420243	-0.107933	-0.25962	-0.74854
-0.449025	-0.798684	-0.41858	-1.260509	-0.119168	0.218683	-0.512618	-0.149666	-0.28551	0.091761	-0.249463	-0.140197	-0.381917	-0.059507	-0.095545	-0.688826
-0.278004	-0.590124	-0.237797	-1.121969	-0.12733	0.234582	-0.537781	-0.191657	-0.208552	0.186931	-0.171475	-0.03594	-0.483045	-0.117657	-0.314079	-0.745778
-0.957032	-0.94242	-0.581352	-1.318492	-0.227852	0.139879	-0.562932	-0.238742	-0.231878	0.186931	-0.192951	-0.084443	-0.399607	-0.0945	-0.204905	-0.701163
-1.39092	-0.995375	-0.581352	-1.341946	-0.24292	0.168028	-0.57328	-0.227791	-0.200972	0.208493	-0.163911	-0.068092	-0.632666	-0.29138	-0.596689	-0.863555
-1.091314	-0.868005	-0.564458	-1.318492	-0.228883	0.156432	-0.604304	-0.252995	-0.162463	0.262003	-0.107231	0.003449	-0.472329	-0.142825	-0.138946	-0.692209
-1.423816	-0.878743	-0.645028	-1.384629	-0.157708	0.192081	-0.633876	-0.243762	-0.270336	0.088459	-0.202967	-0.205261	-0.639549	-0.268265	-0.499841	-0.769237
-0.790933	-0.547024	-0.372358	-1.246732	-0.221871	0.141091	-0.673625	-0.351582	-0.262756	0.016603	-0.236286	-0.237203	-0.781579	-0.465784	-0.770948	-0.83503
-0.823979	-0.595055	-0.436511	-1.300594	-0.163558	0.211646	-0.639893	-0.323017	-0.224923	0.098694	-0.138462	-0.094241	-0.709283	-0.387275	-0.726983	-0.849924
-0.486145	-0.357754	-0.231949	-1.219224	-0.272013	0.051261	-0.708918	-0.441808	-0.272139	0.042013	-0.171475	-0.151084	-0.650127	-0.327851	-0.477859	-0.791711
-1.357701	-0.771958	-0.691929	-1.424491	-0.106293	0.231324	-0.613596	-0.283135	-0.249575	0.064645	-0.196589	-0.144044	-0.546496	-0.264549	-0.41214	-0.814252
-1.424227	-0.643268	-0.576211	-1.354351	-0.24292	0.059119	-0.667853	-0.370281	-0.29538	0.084825	-0.212291	-0.190801	-0.598309	-0.327851	-0.520928	-0.853872
-1.817956	-0.883955	-0.875173	-1.487572	-0.16247	0.117457	-0.620684	-0.327152	-0.26395	0.132741	-0.171475	-0.109904	-0.553349	-0.239535	-0.40122	-0.797237
-1.522953	-0.868005	-0.748642	-1.434108	-0.112136	0.223345	-0.547	-0.201973	-0.311081	0.126451	-0.23735	-0.134756	-0.554266	-0.258969	-0.476981	-0.851965
-1.39092	-0.910541	-0.673524	-1.410766	-0.13435	0.152717	-0.5558	-0.188853	-0.303569	0.147933	-0.278042	-0.166698	-0.491807	-0.193655	-0.205395	-0.768135
-0.755136	-0.67608	-0.354547	-1.242742	-0.24292	0.121137	-0.56901	-0.229929	-0.280342	0.183355	-0.212015	-0.030148	-0.574746	-0.274244	-0.487817	-0.883942
-1.258174	-1.053542	-0.736965	-1.417627	-0.228883	0.129039	-0.580839	-0.211888	-0.410107	0.050353	-0.31726	-0.220982	-0.623434	-0.274244	-0.660562	-0.89758
-0.585804	-0.687178	-0.366224	-1.219224	-0.315109	0.054218	-0.630886	-0.324308	-0.371888	0.050353	-0.290164	-0.205261	-0.629524	-0.327851	-0.563929	-0.934253
-1.392286	-1.307102	-0.755488	-1.442418	-0.272013	0.0974	-0.638277	-0.324981	-0.463396	-0.030636	-0.33125	-0.308456	-0.643256	-0.318255	-0.747584	-0.973658
-0.519278	-0.725359	-0.342881	-1.25252	-0.264004	0.046291	-0.683843	-0.342943	-0.547655	-0.196611	-0.465189	-0.499308	-0.667575	-0.383506	-0.822721	-0.993336
-1.291569	-1.243345	-0.743746	-1.421759	-0.249944	0.07797	-0.645668	-0.355833	-0.486069	-0.074936	-0.368426	-0.411897	-0.504493	-0.245192	-0.455436	-0.891478
-0.622433	-0.810708	-0.342881	-1.225131	-0.306278	-0.004802	-0.704406	-0.431909	-0.478507	-0.080962	-0.360541	-0.356441	-0.32699	-0.032954	-0.073808	-0.789492
-1.024788	-1.058913	-0.621642	-1.383363	-0.03246	0.250826	-0.561903	-0.202814	-0.508782	-0.090257	-0.38816	-0.443478	-0.414387	-0.181759	-0.303362	-0.888335
-0.757974	-0.895738	-0.459173	-1.295543	-0.241928	0.015467	-0.669234	-0.362289	-0.302288	0.145272	-0.140292	-0.029401	-0.295517	-0.091034	-0.118032	-0.832191
-0.757974	-0.938135	-0.447529	-1.298509	-0.061779	0.231227	-0.581191	-0.256859	-0.425191	-0.007716	-0.296278	-0.292705	-0.324226	-0.068045	-0.064038	-0.841448
-0.5566	-0.821898	-0.424272	-1.247832	-0.228883	0.05493	-0.650334	-0.340148	-0.356832	0.06702	-0.225881	-0.165436	-0.474185	-0.231877	-0.40139	-0.965632
-0.523811	-0.848779	-0.377887	-1.241031	-0.301072	0.023369	-0.65909	-0.386666	-0.41124	0.010411	-0.305131	-0.270161	-0.467358	-0.18387	-0.390628	-0.967212
-0.928991	-1.049258	-0.597681	-1.341495	-0.352084	-0.011782	-0.691399	-0.428174	-0.364965	0.082221	-0.260569	-0.157588	-0.775115	-0.458107	-1.023779	-1.164324
-0.892777	-1.011779	-0.516939	-1.321921	-0.325178	0.027657	-0.685681	-0.382481	-0.311769	0.104989	-0.25457	-0.10207	-0.650764	-0.360462	-0.778355	-1.107239
-0.491108	-0.996106	-0.545789	-1.298509	-0.325178	0.10957	-0.649008	-0.370281	-0.426251	-0.027581	-0.351759	-0.284837	-0.643926	-0.35279	-0.703322	-1.093722
-0.523811	-0.794996	-0.23837	-1.184159	-0.297337	0.090117	-0.660799	-0.347476	-0.395042	-0.021458	-0.332554	-0.220512	-0.891959	-0.576886	-1.269252	-1.269626
-1.258564	-1.23224	-0.667131	-1.416388	-0.275288	0.152717	-0.624101	-0.329549	-0.364965	0.096067	-0.215932	-0.085053	-0.48785	-0.174096	-0.433731	-0.958043
-0.794666	-0.848779	-0.290845	-1.244795	-0.218424	0.219514	-0.565527	-0.242424	-0.33428	0.10367	-0.223771	-0.109256	-0.540631	-0.233963	-0.466356	-0.997314
-1.16319	-1.128834	-0.614916	-1.371639	-0.325178	0.062808	-0.65207	-0.377597	-0.272829	0.161837	-0.186912	-0.045103	-0.716139	-0.433267	-0.918059	-1.134589
-1.227845	-1.144314	-0.724212	-1.415342	-0.274138	0.105868	-0.650788	-0.348319	-0.242823	0.228905	-0.141928	-0.022323	-0.391086	-0.178399	-0.206256	-0.914261
-0.928991	-1.117847	-0.580498	-1.361876	-0.274138	0.121599	-0.633378	-0.354863	-0.27434	0.156763	-0.210184	-0.094241	-0.696281	-0.408454	-0.713756	-1.063634
-0.794666	-1.159814	-0.505359	-1.304537	-0.368072	-0.030417	-0.684902	-0.444217	-0.276024	0.2107	-0.149601	-0.063784	-0.502603	-0.253473	-0.369132	-0.968819
-0.465144	-0.93287	-0.297121	-1.220177	-0.383061	-0.041908	-0.715888	-0.468547	-0.414028	0.036934	-0.281673	-0.279178	-0.464551	-0.19046	-0.282432	-0.958477
-0.328847	-1.074468	-0.390136	-1.236871	-0.35525	-0.014735	-0.686804	-0.433763	-0.422249	-0.020793	-0.29131	-0.247384	-0.52701	-0.263243	-0.282432	-0.991714
-0.264522	-0.95626	-0.228301	-1.209906	-0.406094	-0.006901	-0.742519	-0.504998	-0.521718	-0.055886	-0.35111	-0.366603	-0.521471	-0.235168	-0.391342	-1.020619
-0.632821	-1.226589	-0.367216	-1.283697	-0.301135	0.141294	-0.687638	-0.383999	-0.499523	-0.01208	-0.306471	-0.287615	-0.501177	-0.237483	-0.466925	-1.059706
-0.095189	-1.010127	-0.216867	-1.186444	-0.394675	0.090639	-0.716644	-0.472134	-0.560213	-0.084664	-0.362537	-0.334897	-0.672932	-0.429813	-0.692296	-1.134434
-0.433022	-1.264488	-0.344339	-1.260296	-0.423488	0.047801	-0.761701	-0.501149	-0.552823	-0.055886	-0.343112	-0.335527	-0.414378	-0.197426	-0.22885	-0.97551
-0.600699	-1.162595	-0.332915	-1.223381	-0.389113	0.0945	-0.724106	-0.444089	-0.560213	-0.070906	-0.354763	-0.335527	-0.539068	-0.30472	-0.5097	-1.06996
-0.536699	-1.314005	-0.437099	-1.276958	-0.29564	0.156851	-0.696251	-0.408456	-0.454363	0.066975	-0.246442	-0.185271	-0.271408	-0.044455	0.088037	-0.869601
-0.735519	-1.227715	-0.385061	-1.260296	-0.380906	0.059493	-0.737024	-0.467487	-0.477367	0.074474	-0.236777	-0.233349	-0.57017	-0.346928	-0.477606	-1.017275
-0.896539	-1.497732	-0.540096	-1.354328	-0.336947	0.106215	-0.716644	-0.431886	-0.409193	0.147284	-0.139744	-0.051046	-0.521471	-0.274661	-0.326248	-0.978093
-0.632821	-1.32246	-0.355772	-1.253552	-0.193475	0.270075	-0.658626	-0.351408	-0.538881	-0.01093	-0.281451	-0.313005	-0.559373	-0.386774	-0.498993	-1.042817
-0.465144	-1.531768	-0.430775	-1.286879	-0.280465	0.141027	-0.726156	-0.452754	-0.440527	0.083028	-0.174796	-0.130234	-0.479453	-0.297199	-0.402031	-1.044457
-0.76756	-1.51378	-0.459915	-1.320158	-0.352051	0.113758	-0.757154	-0.49491	-0.562656	-0.059853	-0.246568	-0.297562	-0.621549	-0.45135	-0.660174	-1.161456
-0.632821	-1.595716	-0.373658	-1.300036	-0.367152	0.04385	-0.751806	-0.484877	-0.631248	-0.102336	-0.289243	-0.344652	-0.501177	-0.307056	-0.434939	-1.082626
-0.735519	-1.659689	-0.391591	-1.31994	-0.361679	0.13282	-0.79453	-0.539148	-0.557188	-0.00776	-0.184412	-0.179316	-0.549898	-0.36425	-0.574913	-1.123308
-0.264522	-1.589784	-0.368898	-1.26657	-0.306991	0.175491	-0.761501	-0.476069	-0.594664	-0.066208	-0.238676	-0.211051	-0.532307	-0.346928	-0.510342	-1.148661
-0.232481	-1.656836	-0.357567	-1.273256	-0.521794	-0.045493	-0.833962	-0.586664	-0.647623	-0.073654	-0.306471	-0.289057	-0.552601	-0.401813	-0.617471	-1.172309
-0.127311	-1.656836	-0.305457	-1.20306	-0.373006	0.183187	-0.745484	-0.446095	-0.611165	-0.051328	-0.285064	-0.251347	-0.483545	-0.289682	-0.510342	-1.14104
-1.195476	-2.099308	-0.781153	-1.45359	-0.323826	0.218194	-0.705894	-0.357112	-0.528013	0.098946	-0.161113	-0.059786	-0.687535	-0.43633	-0.852388	-1.18415
-0.400982	-1.683051	-0.432222	-1.246582	-0.335834	0.17967	-0.724	-0.365892	-0.557188	0.061649	-0.23289	-0.210164	-0.672932	-0.456707	-0.841894	-1.173358
-1.263324	-2.026706	-0.718408	-1.45359	-0.315397	0.245542	-0.724	-0.349199	-0.458161	0.1912	-0.083331	0.037056	-0.666149	-0.449173	-0.745791	-1.146358
-0.799681	-1.836592	-0.500423	-1.383805	-0.483573	0.059312	-0.774287	-0.481682	-0.609285	0.054177	-0.196078	-0.178399	-0.593288	-0.327312	-0.58504	-1.062364
-0.76756	-1.851112	-0.471338	-1.3237	-0.454862	0.012703	-0.765718	-0.464958	-0.525066	0.147284	-0.114473	-0.066498	-0.579711	-0.352172	-0.488295	-1.036842
-0.536699	-1.656836	-0.332915	-1.273433	-0.317676	0.136943	-0.733635	-0.365892	-0.608406	0.004019	-0.20197	-0.23418	-0.62439	-0.416869	-0.649485	-1.101412
-0.971188	-1.819147	-0.56363	-1.433446	-0.408459	0.047806	-0.755084	-0.429388	-0.493862	0.089459	-0.149601	-0.121595	-0.586498	-0.359707	-0.638805	-1.101412
-1.235964	-1.873967	-0.626721	-1.479878	-0.357651	0.075021	-0.730448	-0.39486	-0.577345	0.017873	-0.219616	-0.272822	-0.513404	-0.30997	-0.412729	-1.062364
-1.398861	-1.931816	-0.649536	-1.470092	-0.228001	0.172389	-0.694016	-0.35362	-0.478245	0.074474	-0.143805	-0.105212	-0.535019	-0.329594	-0.445592	-1.077563
-0.70356	-1.692014	-0.424592	-1.313816	-0.371473	0.01675	-0.763674	-0.452754	-0.552823	-0.00699	-0.247004	-0.263621	-0.430564	-0.237483	-0.207481	-1.0249
-0.997938	-1.824679	-0.684112	-1.444525	-0.477605	-0.092015	-0.834437	-0.549719	-0.484748	0.094758	-0.180718	-0.153448	-0.672932	-0.521223	-0.724422	-1.203162
-0.224169	-1.328955	-0.185787	-1.170023	-0.448803	-0.002812	-0.803623	-0.495532	-0.429669	0.141616	-0.147908	-0.08717	-0.568952	-0.414703	-0.681579	-1.156752
-1.192902	-1.816159	-0.638559	-1.42894	-0.2128	0.203775	-0.726444	-0.342645	-0.482421	0.068382	-0.270528	-0.254537	-0.540631	-0.370484	-0.541876	-1.122241
-0.42014	-1.287431	-0.226121	-1.244795	-0.319364	0.067239	-0.761038	-0.416823	-0.352144	0.256873	-0.091298	-0.015337	-0.408787	-0.232895	-0.303928	-1.032045
-0.523811	-1.431505	-0.459173	-1.261445	-0.189337	0.211727	-0.673118	-0.28027	-0.451237	0.111268	-0.231615	-0.207079	-0.362476	-0.220862	-0.194577	-0.977687
-0.013283	-1.047743	-0.126761	-1.133364	-0.24625	0.176504	-0.67437	-0.320839	-0.435631	0.118862	-0.214106	-0.207079	-0.407542	-0.243712	-0.303362	-0.976156
-0.72183	-1.487215	-0.529266	-1.309207	-0.28225	0.11399	-0.687425	-0.344414	-0.305817	0.294796	-0.083454	0.008035	-0.760965	-0.58192	-0.983269	-1.230739
-0.078946	-0.936647	-0.150061	-1.123415	-0.259056	0.121599	-0.665166	-0.336952	-0.458036	0.097404	-0.202623	-0.198611	-0.581581	-0.406455	-0.563463	-1.105777
-0.72183	-1.471735	-0.517556	-1.325794	-0.181103	0.192147	-0.638988	-0.298207	-0.517976	0.022778	-0.251631	-0.324998	-0.380198	-0.243712	-0.194577	-0.991288
-0.552497	-1.212611	-0.389609	-1.244795	-0.424892	-0.049742	-0.770611	-0.533231	-0.373788	0.150402	-0.122509	-0.055999	-0.422415	-0.295792	-0.422941	-1.057625
-0.585804	-1.269808	-0.389609	-1.315113	-0.288104	0.043796	-0.709214	-0.464658	-0.450563	0.029412	-0.184826	-0.200004	-0.502603	-0.362904	-0.390628	-1.065176
-0.217094	-1.089743	-0.243795	-1.257133	-0.079618	0.227117	-0.637728	-0.350337	-0.618348	-0.220693	-0.390524	-0.524694	-0.627294	-0.492422	-0.713756	-1.155237
-0.7251	-1.287431	-0.424272	-1.373973	-0.302087	-0.049319	-0.757532	-0.553516	-0.573049	-0.163352	-0.303339	-0.390503	-0.71674	-0.564578	-0.82087	-1.212144
-0.523811	-1.059212	-0.284713	-1.313816	-0.143726	0.141294	-0.655144	-0.407461	-0.550091	-0.178364	-0.307258	-0.366603	-0.620485	-0.502012	-0.606464	-1.131286
-0.692312	-1.370516	-0.52853	-1.443805	-0.296186	0.01675	-0.696136	-0.48337	-0.572483	-0.187265	-0.322945	-0.437231	-0.572928	-0.439488	-0.542302	-1.095445
-0.729679	-1.249414	-0.436099	-1.343486	-0.296186	0.008974	-0.700494	-0.482457	-0.542636	-0.15717	-0.318664	-0.406613	-0.530999	-0.382338	-0.498993	-1.087868
-0.393501	-1.150946	-0.267758	-1.296807	-0.189337	0.121772	-0.655144	-0.383012	-0.565598	-0.15717	-0.32828	-0.446549	-0.62439	-0.471791	-0.670872	-1.101412
-0.328847	-1.159343	-0.274139	-1.26997	-0.268329	0.106215	-0.67129	-0.435581	-0.648707	-0.244654	-0.378775	-0.548448	-0.465898	-0.337115	-0.466925	-1.052078
-0.264522	-1.114547	-0.239745	-1.243191	-0.404997	-0.033743	-0.747511	-0.547897	-0.565598	-0.120927	-0.268125	-0.351695	-0.549898	-0.381559	-0.606818	-1.067339
-0.70356	-1.434702	-0.575033	-1.383127	-0.313649	0.055558	-0.708452	-0.509603	-0.581095	-0.142149	-0.25457	-0.351695	-0.614777	-0.443838	-0.724422	-1.124156
-0.70356	-1.434702	-0.448502	-1.369801	-0.328749	0.071048	-0.698584	-0.499439	-0.618895	-0.214559	-0.349618	-0.462058	-0.752339	-0.619777	-0.905699	-1.212218
-1.299322	-1.710105	-0.792525	-1.528897	-0.471772	-0.091726	-0.783267	-0.62145	-0.589154	-0.127146	-0.266059	-0.344652	-0.628325	-0.443838	-0.735102	-1.104672
-1.034865	-1.765545	-0.689695	-1.475965	-0.430375	-0.041396	-0.806711	-0.615873	-0.535186	-0.094817	-0.312651	-0.360114	-0.518796	-0.341766	-0.499707	-1.024067
-0.869612	-1.831988	-0.592574	-1.419553	-0.460401	-0.045284	-0.805506	-0.592618	-0.548984	-0.100683	-0.357442	-0.430469	-0.36039	-0.174863	-0.090591	-0.860914
-0.200522	-1.499074	-0.339511	-1.313256	-0.560193	-0.145779	-0.847363	-0.619627	-0.364965	0.128565	-0.237097	-0.233349	-0.512046	-0.326798	-0.564295	-1.043602
-0.971188	-1.912883	-0.747098	-1.479187	-0.484935	0.000988	-0.788303	-0.528334	-0.302906	0.250256	-0.15351	-0.137967	-0.378144	-0.199824	-0.263772	-0.929774
-1.199325	-1.901866	-0.707046	-1.475965	-0.54222	-0.053179	-0.804326	-0.539495	-0.426251	0.142414	-0.283505	-0.408553	-0.474169	-0.279515	-0.381808	-0.953488
-1.394959	-2.092278	-0.872243	-1.55865	-0.444073	0.074249	-0.771124	-0.463911	-0.403134	0.170132	-0.345708	-0.415588	-0.463261	-0.237187	-0.41366	-0.957653
-0.869612	-1.762037	-0.610163	-1.402981	-0.521794	0.024061	-0.820338	-0.504014	-0.311081	0.257942	-0.219616	-0.217888	-0.556652	-0.344152	-0.585539	-1.008717
-0.536699	-1.762037	-0.547188	-1.356489	-0.564004	0.000988	-0.808623	-0.520789	-0.38061	0.193162	-0.289488	-0.313005	-0.514703	-0.301946	-0.456254	-0.897001
-0.70356	-1.528504	-0.443563	-1.316567	-0.598083	-0.03756	-0.801203	-0.51984	-0.379994	0.176304	-0.305131	-0.336205	-0.456507	-0.272047	-0.510342	-0.871364
-0.965734	-1.828651	-0.701098	-1.406638	-0.598083	-0.03756	-0.801203	-0.514236	-0.27967	0.366316	-0.120468	-0.089712	-0.501177	-0.286988	-0.628133	-0.887551
-0.965734	-1.650733	-0.597869	-1.336779	-0.4426	0.117405	-0.73587	-0.398284	-0.25641	0.336895	-0.163381	-0.129342	-0.334095	-0.139819	-0.120561	-0.737391
-1.295446	-1.512699	-0.597869	-1.33359	-0.569505	-0.00273	-0.793785	-0.485268	-0.201602	0.46747	-0.042455	-0.000669	-0.325686	-0.079647	-0.195512	-0.688163
-1.127579	-1.652738	-0.689629	-1.364148	-0.347985	0.148765	-0.713495	-0.33141	-0.240042	0.378904	-0.124571	-0.072414	-0.254479	-0.049457	-0.085608	-0.670858
-0.994146	-1.348567	-0.48223	-1.270658	-0.36028	0.172389	-0.707233	-0.347268	-0.178259	0.430185	-0.077822	-0.031783	-0.395174	-0.159796	-0.282432	-0.698491
-0.892777	-1.285251	-0.505359	-1.311323	-0.365828	0.125718	-0.730136	-0.374538	-0.147325	0.504777	-0.024974	0.055653	-0.317396	-0.067046	-0.249322	-0.637125
-1.816482	-1.513091	-0.861826	-1.448346	-0.492521	0.051615	-0.769262	-0.449066	-0.192793	0.420972	-0.082012	-0.030942	-0.358434	-0.112351	-0.35783	-0.687377
-1.39092	-1.315864	-0.690366	-1.372566	-0.284686	0.22737	-0.693087	-0.283135	-0.191721	0.417877	-0.098175	-0.085711	-0.262734	-0.042133	-0.084672	-0.606052
-0.755136	-0.900456	-0.331226	-1.150715	-0.440809	0.039706	-0.749935	-0.416735	-0.260561	0.310013	-0.189047	-0.2284	-0.293258	-0.093221	-0.324999	-0.707022
-0.655478	-0.91143	-0.360359	-1.137058	-0.375046	0.07068	-0.711757	-0.320664	-0.306665	0.270697	-0.189668	-0.259999	-0.341779	-0.106383	-0.466882	-0.74382
-0.42014	-0.720939	-0.284713	-1.083033	-0.214862	0.246719	-0.608723	-0.193832	-0.353229	0.22137	-0.234561	-0.300206	-0.144689	0.09893	0.08124	-0.555078
-0.249967	-0.763632	-0.22056	-1.052567	-0.287051	0.156432	-0.633781	-0.22342	-0.236906	0.339611	-0.148694	-0.163905	-0.3519	-0.102214	-0.303355	-0.696428
-1.291523	-1.127427	-0.563367	-1.275999	-0.366097	0.026917	-0.655906	-0.282555	-0.205832	0.391032	-0.13334	-0.195584	-0.461018	-0.162271	-0.574839	-0.737679
-0.857111	-1.069652	-0.459173	-1.205493	-0.315109	0.144246	-0.623479	-0.222697	-0.088565	0.492443	-0.047733	0.006798	-0.55173	-0.258645	-0.758504	-0.808103
-1.358154	-1.331693	-0.707262	-1.346297	-0.286057	0.175284	-0.599881	-0.198145	-0.190126	0.345661	-0.151725	-0.146887	-0.523644	-0.198871	-0.791321	-0.786886
-1.191648	-1.294987	-0.575001	-1.317171	-0.264997	0.202763	-0.567373	-0.174275	-0.174411	0.426819	-0.098604	-0.074536	-0.306325	-0.011068	-0.314079	-0.670342
-0.7251	-1.243515	-0.52853	-1.235878	-0.156542	0.348624	-0.497778	-0.096009	-0.11978	0.478425	-0.075192	-0.074152	-0.242942	0.039549	-0.292267	-0.644236
-0.622433	-1.159814	-0.435895	-1.21632	-0.287051	0.170865	-0.561515	-0.185177	-0.158206	0.429204	-0.107375	-0.089818	-0.411421	-0.171856	-0.607628	-0.791711
-0.387267	-0.998305	-0.348746	-1.141653	-0.192732	0.273012	-0.53048	-0.118526	-0.228278	0.30026	-0.216112	-0.242765	-0.277792	0.000836	-0.335929	-0.641316
-0.42014	-1.128834	-0.435895	-1.192767	-0.235899	0.24543	-0.523106	-0.13017	-0.290636	0.232932	-0.278747	-0.331112	-0.090934	0.090275	0.025795	-0.542716
-0.42014	-1.029248	-0.255429	-1.108177	-0.285123	0.161757	-0.533644	-0.17101	-0.157918	0.397465	-0.121082	-0.090111	-0.107895	0.110072	0.147805	-0.527363
-0.315972	-0.96035	-0.313758	-1.121969	-0.530079	-0.108441	-0.644748	-0.356809	0.030315	0.608419	0.062998	0.208786	-0.330454	-0.088518	-0.466882	-0.710802
-0.315972	-1.002587	-0.337165	-1.121969	-0.292171	0.092031	-0.589865	-0.249772	-0.17349	0.322035	-0.190348	-0.186748	-0.544588	-0.287725	-0.802279	-0.810258
-0.990515	-1.300172	-0.483587	-1.261838	-0.421564	-0.076461	-0.672741	-0.392746	-0.071462	0.46908	-0.029002	0.023183	-0.446667	-0.175685	-0.68317	-0.753315
-0.585804	-1.080468	-0.35516	-1.210611	-0.37705	-0.073218	-0.66827	-0.362641	-0.173571	0.311951	-0.187221	-0.194553	-0.221274	0.024078	-0.095057	-0.62896
-0.855587	-1.174562	-0.490378	-1.275698	-0.108999	0.257817	-0.533396	-0.154783	-0.173571	0.333747	-0.169495	-0.186545	-0.530561	-0.285965	-0.695482	-0.828833
-0.552497	-1.127427	-0.443038	-1.234165	-0.383553	-0.073218	-0.700697	-0.392279	-0.008586	0.552824	0.014677	0.119942	-0.368853	-0.144833	-0.445746	-0.789119
-0.482509	-1.106224	-0.373574	-1.200878	-0.326018	0.002004	-0.653252	-0.33351	-0.189153	0.357679	-0.183179	-0.226887	-0.639103	-0.399811	-0.965299	-0.964965
-0.278004	-0.963656	-0.273503	-1.180118	-0.129419	0.162877	-0.611864	-0.207808	-0.189153	0.363552	-0.143679	-0.130341	-0.337447	-0.090468	-0.379741	-0.713513
-0.652682	-1.085341	-0.414253	-1.264604	-0.383553	-0.127628	-0.735878	-0.410232	-0.110893	0.449152	-0.062175	0.022758	-0.428781	-0.162232	-0.477859	-0.758146
-0.788531	-1.027173	-0.443038	-1.281202	-0.195102	0.100018	-0.665016	-0.291129	-0.181506	0.415265	-0.106634	-0.042757	-0.527068	-0.295477	-0.791321	-0.875911
-0.482509	-0.980076	-0.466686	-1.241077	-0.195102	0.174363	-0.641481	-0.242821	-0.251649	0.322035	-0.199985	-0.186748	-0.562094	-0.279978	-0.844552	-0.883349
-0.278004	-0.862846	-0.419434	-1.182983	-0.311808	0.056662	-0.681226	-0.296963	-0.228278	0.375629	-0.126733	-0.130634	-0.249905	0.031816	-0.194013	-0.644236
-0.139608	-0.616341	-0.226251	-1.149597	-0.27558	0.127436	-0.660563	-0.27893	-0.282842	0.332019	-0.171811	-0.194968	-0.42578	-0.117657	-0.444553	-0.768411
-0.923	-0.97592	-0.611534	-1.308845	-0.347998	0.013337	-0.731422	-0.338336	-0.306199	0.316149	-0.150093	-0.170788	-0.55857	-0.220276	-0.705057	-0.863555
-0.482509	-0.718449	-0.3316	-1.227256	-0.14538	0.24984	-0.614749	-0.153491	-0.345124	0.240884	-0.215223	-0.2911	-0.607505	-0.293736	-0.877368	-0.895698
-0.990515	-1.02247	-0.680188	-1.328147	-0.312542	0.088581	-0.66343	-0.249772	-0.352924	0.227123	-0.252126	-0.299215	-0.71205	-0.368736	-1.02693	-0.942631
-0.855587	-1.00642	-0.500544	-1.297788	-0.406069	0.029317	-0.709164	-0.332988	-0.353042	0.187363	-0.232893	-0.226887	-0.614532	-0.279978	-0.822721	-0.892095
-0.516081	-1.075022	-0.576211	-1.314363	-0.218899	0.155788	-0.641219	-0.220681	-0.243854	0.399425	-0.090579	-0.05025	-0.659811	-0.360979	-1.016001	-1.001764
-0.211302	-0.87375	-0.249485	-1.175081	-0.305463	0.147836	-0.661869	-0.268405	-0.197183	0.395298	-0.097953	-0.034825	-0.499434	-0.191138	-0.703998	-0.887287
-1.058007	-1.331576	-0.696888	-1.434108	-0.161442	0.301799	-0.614618	-0.180066	-0.088226	0.539666	0.008901	0.109482	-0.411875	-0.100195	-0.455436	-0.809503
-0.72183	-1.111755	-0.441944	-1.275999	-0.407449	0.011068	-0.733906	-0.358986	-0.173912	0.456545	-0.038538	0.053457	-0.260735	0.05716	-0.095545	-0.685607
-0.622433	-1.222003	-0.546289	-1.292609	-0.36436	0.108914	-0.680961	-0.287672	-0.205099	0.397118	-0.091659	-0.018975	-0.467961	-0.150549	-0.509517	-0.803368
-0.111905	-0.933609	-0.290394	-1.154511	-0.543581	-0.079749	-0.744346	-0.417497	-0.251898	0.345661	-0.140704	-0.099692	-0.523644	-0.164099	-0.574839	-0.794418
-0.755136	-1.258379	-0.552716	-1.293715	-0.436397	-0.012744	-0.728185	-0.382157	-0.360609	0.180036	-0.243285	-0.267609	-0.303218	0.012075	-0.161394	-0.653403
-0.387267	-0.944812	-0.290394	-1.184923	-0.386306	0.100977	-0.707572	-0.328834	-0.360609	0.195816	-0.248905	-0.25175	-0.56924	-0.200795	-0.606862	-0.801957
-1.092511	-1.362749	-0.685201	-1.343434	-0.465312	-0.047931	-0.764935	-0.405895	-0.306335	0.27857	-0.184008	-0.155997	-0.642389	-0.314537	-0.86642	-0.910561
-0.282927	-1.049258	-0.313758	-1.144641	-0.24292	0.238801	-0.627912	-0.204641	-0.252076	0.391032	-0.083672	-0.03594	-0.390488	-0.07701	-0.270453	-0.702586
-1.291523	-1.549328	-0.725299	-1.397057	-0.345083	0.188013	-0.654407	-0.247957	-0.228698	0.391032	-0.083672	0.028454	-0.527245	-0.193081	-0.531876	-0.846372
-0.823979	-1.164518	-0.470828	-1.245667	-0.589032	-0.066186	-0.732364	-0.426154	-0.205832	0.425677	-0.06327	0.034872	-0.586737	-0.270214	-0.672241	-0.893424
-0.655478	-1.069652	-0.569653	-1.275999	-0.437984	0.07797	-0.651478	-0.325679	-0.135543	0.417877	-0.096396	0.00272	-0.324846	-0.077927	-0.281375	-0.810931
-0.857111	-0.85796	-0.389609	-1.215309	-0.372231	0.0974	-0.616119	-0.343635	-0.236426	0.327458	-0.198152	-0.149146	-0.520692	-0.324159	-0.553028	-0.913176
-0.859988	-0.868974	-0.5983	-1.332624	-0.378467	0.187547	-0.564438	-0.373073	-0.189844	0.358706	-0.240713	-0.189559	-0.381021	-0.286052	-0.357634	-0.853872
-0.757974	-0.628412	-0.377911	-1.218293	-0.262198	0.250461	-0.517092	-0.360891	-0.24416	0.262335	-0.337982	-0.300998	-0.310161	-0.20129	-0.182867	-0.784212
-1.091314	-0.761305	-0.663544	-1.357151	-0.044253	0.523366	-0.354997	-0.177352	-0.259464	0.264728	-0.322753	-0.300206	-0.454079	-0.356707	-0.509989	-0.861057
-0.89033	-0.497691	-0.471801	-1.289708	-0.085841	0.372556	-0.401223	-0.246517	-0.189421	0.296132	-0.304659	-0.220982	-0.242942	-0.199173	-0.138946	-0.708205
-0.719916	-0.361727	-0.390583	-1.300594	-0.202221	0.273757	-0.414686	-0.294109	-0.126963	0.414577	-0.205136	-0.060824	-0.28161	-0.27987	-0.248758	-0.759302
-0.72183	-0.192662	-0.38411	-1.245667	-0.201495	0.320981	-0.390869	-0.269657	-0.150262	0.37531	-0.246396	-0.116003	-0.359486	-0.324159	-0.434008	-0.794082
-0.415631	-0.016506	-0.278981	-1.222161	-0.077022	0.42797	-0.332583	-0.197457	-0.048881	0.51774	-0.152423	0.036342	-0.289343	-0.258969	-0.346867	-0.787866
-0.315972	0.065095	-0.196789	-1.1538	-0.027048	0.475758	-0.317589	-0.145357	-0.112066	0.417877	-0.249463	-0.077195	-0.148719	-0.153321	0.036715	-0.692209
-0.354478	0.178458	-0.115128	-1.129735	0.082797	0.583081	-0.245762	-0.031534	-0.112865	0.413205	-0.293715	-0.110599	-0.223076	-0.20345	-0.117319	-0.765665
-0.589473	-0.095306	-0.383615	-1.220649	-0.070712	0.443919	-0.30414	-0.138813	-0.144436	0.369664	-0.272322	-0.062209	-0.381021	-0.310993	-0.346761	-0.852527
-0.217094	0.057506	-0.232172	-1.183585	-0.166666	0.341127	-0.377325	-0.22342	-0.059257	0.533038	-0.138012	0.138435	-0.191399	-0.188221	0.102038	-0.756109
-0.991655	-0.394783	-0.575001	-1.348285	-0.203009	0.35286	-0.377325	-0.216919	-0.175969	0.406943	-0.215932	-0.005885	-0.10033	-0.117556	0.145399	-0.757549
-1.026849	-0.293754	-0.568917	-1.351291	-0.086764	0.408219	-0.386267	-0.18657	-0.175969	0.332406	-0.272322	-0.077872	-0.31793	-0.288198	-0.237902	-0.847728
-1.489821	-0.713092	-0.879988	-1.512336	-0.065491	0.483705	-0.301255	-0.115695	-0.27622	0.256264	-0.309407	-0.173289	-0.366425	-0.341451	-0.303168	-0.896959
-1.456776	-0.558245	-0.638559	-1.392021	-0.130284	0.396443	-0.36539	-0.180066	-0.337861	0.179974	-0.381413	-0.308856	-0.194314	-0.220862	-0.106427	-0.780724
-1.720633	-0.899924	-0.835351	-1.499916	0.016651	0.519323	-0.301135	-0.088737	-0.298762	0.235181	-0.364483	-0.292314	-0.292412	-0.308902	-0.324999	-0.863555
-1.291569	-0.681051	-0.576211	-1.399881	-0.230092	0.193858	-0.43266	-0.30864	-0.135543	0.398885	-0.181473	0.011312	-0.239079	-0.264549	-0.292379	-0.828833
-1.424227	-0.92647	-0.739006	-1.443732	0.128705	0.54718	-0.251705	-0.009416	-0.27514	0.170047	-0.371316	-0.291971	-0.111844	-0.158785	-0.116983	-0.770526
-0.823979	-0.522057	-0.255443	-1.258438	-0.082764	0.312219	-0.387953	-0.230075	-0.181665	0.341904	-0.252595	-0.155997	-0.263244	-0.285582	-0.445746	-0.879668
-1.456776	-1.032463	-0.790779	-1.476651	-0.053311	0.3443	-0.365458	-0.206657	-0.048881	0.490667	-0.110071	0.037004	-0.182498	-0.222162	-0.379741	-0.836285
-0.857111	-0.671328	-0.302563	-1.272095	-0.067134	0.268523	-0.374451	-0.235936	-0.259528	0.18377	-0.352865	-0.299611	0.033907	-0.032954	0.08124	-0.745778
-1.589479	-1.201381	-0.80995	-1.534088	-0.015947	0.300625	-0.368406	-0.200809	-0.080492	0.432912	-0.123739	0.069277	-0.302017	-0.316374	-0.575765	-0.946382
-0.692312	-0.560935	-0.255443	-1.254637	0.072073	0.388008	-0.345982	-0.159328	-0.252076	0.187929	-0.325054	-0.23591	0.015865	-0.025282	0.025795	-0.800573
-1.456776	-1.106224	-0.675329	-1.463001	0.072073	0.431747	-0.316109	-0.135358	-0.143252	0.381367	-0.155015	0.021184	-0.291759	-0.285582	-0.423069	-0.950045
-1.092511	-0.85796	-0.52406	-1.352119	-0.11159	0.237423	-0.420556	-0.296457	-0.298969	0.189928	-0.332348	-0.252092	-0.077014	-0.116196	-0.161394	-0.894781
-0.892777	-0.85796	-0.500544	-1.358931	-0.002221	0.3763	-0.344501	-0.153491	-0.17473	0.381367	-0.17437	0.021184	-0.397462	-0.4084	-0.714881	-1.0681
-0.92565	-0.799594	-0.500544	-1.328733	0.172676	0.575129	-0.275876	-0.046564	-0.306665	0.217476	-0.27977	-0.163492	-0.316479	-0.308669	-0.563929	-1.021442
-0.692312	-0.725359	-0.424769	-1.261445	-0.039649	0.356607	-0.386267	-0.189122	-0.213528	0.306272	-0.20558	-0.042757	-0.477975	-0.47002	-0.791321	-1.141946
-1.22569	-0.87375	-0.616511	-1.409561	0.069515	0.495585	-0.307158	-0.087366	-0.314365	0.164236	-0.336308	-0.211453	-0.302017	-0.314537	-0.564778	-1.017919
-0.626989	-0.592378	-0.389609	-1.261445	0.055201	0.471684	-0.27872	-0.080872	-0.376202	0.073558	-0.361741	-0.283488	-0.33009	-0.312744	-0.597766	-0.983576
-1.522614	-0.905389	-0.680188	-1.446533	-0.046825	0.348624	-0.338517	-0.158163	-0.314073	0.138328	-0.325054	-0.227342	-0.220663	-0.216238	-0.160948	-0.89209
-0.92565	-0.574175	-0.343375	-1.299454	-0.082764	0.273012	-0.37895	-0.193372	-0.166409	0.347868	-0.166915	0.021758	-0.234708	-0.256764	-0.445746	-0.916972
-0.757974	-0.638094	-0.443038	-1.313156	-0.119379	0.269423	-0.369954	-0.217846	-0.181871	0.318167	-0.135643	0.013267	-0.283986	-0.303234	-0.413652	-0.888744
-0.486145	-0.231585	-0.1678	-1.181945	-0.059905	0.308637	-0.359601	-0.20513	-0.27514	0.197499	-0.277037	-0.195251	-0.061101	-0.07701	0.01535	-0.753064
-1.258174	-0.66016	-0.561723	-1.39839	-0.000862	0.3443	-0.326701	-0.175246	-0.181665	0.242993	-0.236219	-0.12303	-0.170972	-0.158277	-0.182988	-0.804178
-0.552497	-0.181412	-0.215319	-1.195684	0.080716	0.399707	-0.307306	-0.120782	-0.111219	0.367686	-0.097369	0.054616	-0.333505	-0.28953	-0.478878	-0.894997
-1.091314	-0.573844	-0.537897	-1.384629	0.118306	0.411398	-0.292428	-0.096193	-0.212605	0.190812	-0.294552	-0.226735	-0.488473	-0.422008	-0.781963	-0.954387
-0.788531	-0.246989	-0.368541	-1.263356	0.00024	0.312219	-0.33445	-0.16251	-0.110893	0.311951	-0.17835	-0.074152	-0.389961	-0.329998	-0.566019	-0.927319
-0.686254	-0.252591	-0.339728	-1.260509	-0.124757	0.161757	-0.352578	-0.228268	-0.110893	0.34173	-0.16236	-0.06618	-0.347781	-0.324083	-0.630841	-0.954387
-0.549742	-0.20312	-0.315834	-1.232971	0.08189	0.351494	-0.29118	-0.119808	-0.267254	0.141799	-0.338476	-0.331246	-0.050172	-0.059507	0.048668	-0.725681
-0.822015	-0.334473	-0.433056	-1.3103	-0.007039	0.276556	-0.30768	-0.168407	-0.173523	0.260449	-0.248179	-0.146887	-0.365269	-0.378183	-0.534292	-0.98664
-1.191764	-0.541098	-0.666083	-1.401134	-0.161808	0.174363	-0.333253	-0.270745	-0.134337	0.266229	-0.238552	-0.114371	-0.33009	-0.314537	-0.512098	-0.961672
-1.158192	-0.627499	-0.60205	-1.431358	-0.073862	0.22941	-0.31847	-0.204675	-0.165666	0.266229	-0.204981	-0.106394	-0.245082	-0.212509	-0.205732	-0.882495
-1.0915	-0.6112	-0.637807	-1.412167	-0.007537	0.284584	-0.308258	-0.180209	-0.157847	0.303969	-0.187356	-0.041879	-0.057204	-0.049734	0.093075	-0.785447
-0.787509	-0.6112	-0.480844	-1.348851	-0.212999	0.145675	-0.340252	-0.305813	-0.126517	0.34173	-0.165736	-0.009576	-0.146088	-0.115676	-0.084134	-0.804178
-1.59209	-0.97592	-0.813587	-1.514063	0.029851	0.379215	-0.227302	-0.101161	-0.220419	0.209045	-0.263439	-0.187001	0.024905	0.069122	0.24899	-0.677098
-1.358625	-0.750735	-0.609511	-1.406841	-0.080701	0.280056	-0.266788	-0.161241	-0.189208	0.242237	-0.220936	-0.073818	-0.141894	-0.108197	-0.107108	-0.798834
-1.720633	-0.964005	-0.8057	-1.50715	-0.036197	0.390835	-0.223481	-0.118552	-0.205266	0.213404	-0.228042	-0.13782	0.025643	0.041881	0.34999	-0.660004
-1.258174	-0.702337	-0.521321	-1.406841	-0.10959	0.251184	-0.267703	-0.190606	-0.236925	0.181119	-0.269769	-0.194314	-0.03863	-0.007002	0.092931	-0.718999
-1.324569	-0.739918	-0.561723	-1.393004	0.075062	0.438333	-0.145002	0.008801	-0.079432	0.370744	-0.112307	0.048299	-0.102783	-0.007002	0.026314	-0.712677
-0.857111	-0.535883	-0.380471	-1.308845	-0.1389	0.23499	-0.243777	-0.1483	-0.103031	0.297199	-0.161389	-0.048977	0.003762	0.024324	0.170921	-0.721106
-1.621235	-0.931924	-0.753824	-1.50715	-0.050495	0.278827	-0.234544	-0.124496	-0.134671	0.221463	-0.236065	-0.097433	-0.057204	-0.018557	0.048668	-0.729609
-1.522614	-0.718936	-0.618565	-1.472643	0.068122	0.461605	-0.154231	-0.021393	-0.087339	0.348889	-0.106634	0.040519	-0.319421	-0.257498	-0.467825	-0.906493
-1.881974	-1.027173	-0.885372	-1.563157	0.060775	0.437227	-0.201339	-0.07578	-0.047852	0.367221	-0.113974	0.040256	-0.18881	-0.119632	-0.237752	-0.856409
-1.22569	-0.707959	-0.578268	-1.419061	0.045369	0.430244	-0.19768	-0.064718	-0.110769	0.271989	-0.164689	-0.000511	-0.089206	-0.036066	0.092825	-0.784282
-1.357701	-0.862846	-0.666083	-1.453587	-0.146402	0.254512	-0.249271	-0.179039	-0.165708	0.226217	-0.19436	-0.05702	-0.333505	-0.224574	-0.467825	-0.933578
-1.058007	-0.718449	-0.549805	-1.430225	-0.227357	0.152285	-0.306287	-0.227528	-0.11861	0.29376	-0.164689	0.015843	-0.245082	-0.158632	-0.292876	-0.861582
-1.621235	-0.931924	-0.885372	-1.523534	-0.220057	0.179822	-0.343922	-0.233455	-0.165666	0.274216	-0.158365	-0.000825	-0.188338	-0.143018	-0.238256	-0.860536
-1.192902	-0.579024	-0.594872	-1.419061	-0.153931	0.270727	-0.294346	-0.190919	-0.236063	0.169134	-0.219285	-0.105838	-0.276935	-0.25918	-0.391516	-0.866814
-1.522614	-0.814694	-0.837987	-1.556267	-0.197968	0.226885	-0.31548	-0.196863	-0.220419	0.214789	-0.224928	-0.089818	-0.308758	-0.251389	-0.501015	-0.885665
-0.859988	-0.460579	-0.495383	-1.368112	-0.227553	0.212149	-0.325563	-0.2094	-0.282969	0.190812	-0.205648	-0.081553	-0.301711	-0.29204	-0.501015	-0.898248
-1.125471	-0.546213	-0.606713	-1.425958	-0.161489	0.291581	-0.286123	-0.149389	-0.290697	0.133822	-0.295338	-0.178543	-0.31581	-0.25918	-0.435827	-0.891955
-1.324569	-0.578665	-0.658786	-1.465753	-0.154546	0.232897	-0.350383	-0.216466	-0.228234	0.165701	-0.261789	-0.114371	-0.245082	-0.20896	-0.271534	-0.85952
-1.687413	-0.77881	-0.925098	-1.572616	0.036572	0.427459	-0.292861	-0.084941	-0.399641	-0.027437	-0.375166	-0.331154	-0.238458	-0.212509	-0.270798	-0.888744
-0.857111	-0.257985	-0.378764	-1.333737	-0.088846	0.300625	-0.345187	-0.193876	-0.243854	0.146265	-0.181087	-0.033907	-0.139778	-0.140856	-0.061907	-0.852452
-0.790933	-0.448751	-0.628253	-1.430053	-0.082152	0.340637	-0.362841	-0.189122	-0.422663	-0.041886	-0.356129	-0.31549	-0.235248	-0.222099	-0.21577	-0.963838
-0.184305	-0.023364	-0.302071	-1.298509	-0.228534	0.146887	-0.442105	-0.338336	-0.368361	-0.018194	-0.322753	-0.203516	-0.316479	-0.272235	-0.390718	-1.048891
-1.158516	-0.703195	-0.795456	-1.529982	-0.199218	0.221392	-0.446628	-0.337879	-0.321919	0.050566	-0.26394	-0.099692	-0.467412	-0.424739	-0.619806	-1.112028
-0.589473	-0.29148	-0.430257	-1.328733	-0.250603	0.201871	-0.504811	-0.397284	-0.376202	0.005455	-0.320474	-0.163905	-0.414768	-0.426355	-0.521862	-1.112028
-1.124709	-0.88071	-0.882253	-1.564153	-0.089965	0.352308	-0.40476	-0.235936	-0.321919	0.136798	-0.20558	-0.003146	-0.646127	-0.612537	-1.095326	-1.252689
-0.652682	-0.508437	-0.54762	-1.373685	-0.280293	0.186824	-0.500289	-0.373447	-0.329647	0.105218	-0.235033	-0.04327	-0.513037	-0.474515	-0.739639	-1.123537
-0.755136	-0.675513	-0.628253	-1.406719	-0.11284	0.325228	-0.437583	-0.248153	-0.507781	-0.113231	-0.418939	-0.419263	-0.260024	-0.233593	-0.347359	-0.968966
-0.585804	-0.481559	-0.3316	-1.306303	-0.192492	0.206343	-0.431933	-0.277042	-0.298489	0.12465	-0.227649	-0.051187	-0.520062	-0.491607	-0.859339	-1.115487
-1.191764	-1.002175	-0.873509	-1.528744	-0.228534	0.190363	-0.450081	-0.312382	-0.313999	0.071316	-0.229931	-0.067037	-0.47795	-0.416967	-0.795053	-1.062711
-0.552497	-0.444569	-0.31437	-1.306303	-0.11159	0.241858	-0.429128	-0.228679	-0.538876	-0.158485	-0.442818	-0.46711	-0.086057	-0.133119	0.026531	-0.815576
-1.325052	-1.096907	-0.758137	-1.521873	-0.103827	0.225878	-0.426335	-0.222366	-0.368431	0.010001	-0.291346	-0.235294	-0.48499	-0.441873	-0.708353	-1.055557
-0.72183	-0.590124	-0.414253	-1.373685	-0.308418	0.056662	-0.489195	-0.395945	-0.422905	-0.131649	-0.407125	-0.371225	-0.34415	-0.336001	-0.501015	-0.964919
-0.923637	-0.915914	-0.654187	-1.48486	-0.125539	0.225878	-0.430883	-0.252272	-0.26725	0.084939	-0.220936	-0.082906	-0.153768	-0.142825	-0.171963	-0.81668
-0.622433	-0.718936	-0.414253	-1.390208	-0.118297	0.293369	-0.379819	-0.210569	-0.251663	0.117852	-0.190355	-0.098099	-0.361825	-0.328244	-0.641885	-0.998178
-0.95861	-1.069432	-0.670627	-1.487572	-0.118297	0.24984	-0.384365	-0.186548	-0.204848	0.159959	-0.160053	0.013821	-0.336988	-0.324869	-0.458042	-0.977477
-0.92565	-0.703047	-0.390583	-1.366833	-0.132784	0.174363	-0.407119	-0.221971	-0.376226	-0.027437	-0.307321	-0.21116	-0.039248	-0.0555	0.14844	-0.783146
-1.390943	-1.111611	-0.837987	-1.547782	-0.162193	0.225878	-0.407119	-0.251905	-0.27504	0.04746	-0.246537	-0.146887	-0.252133	-0.243604	-0.391516	-0.938853
-1.059638	-0.718936	-0.519009	-1.464279	-0.140034	0.201871	-0.399787	-0.221603	-0.508411	-0.222324	-0.463704	-0.506916	-0.308688	-0.249688	-0.381578	-0.937896
-0.95861	-0.841359	-0.606713	-1.475303	0.006975	0.38	-0.308258	-0.100737	-0.438529	-0.134213	-0.376029	-0.347206	-0.283892	-0.298204	-0.502588	-0.982862
-0.387267	-0.41261	-0.273503	-1.3103	-0.058877	0.268523	-0.361321	-0.142345	-0.345223	-0.008381	-0.288129	-0.186748	-0.230673	-0.172573	-0.261488	-0.877451
-1.22569	-0.82539	-0.722581	-1.528744	0.140105	0.471293	-0.255846	0.008801	-0.157918	0.224974	-0.083672	0.119375	-0.074066	-0.082939	0.026314	-0.806142
-0.892777	-0.551934	-0.478527	-1.391508	-0.000279	0.355947	-0.344829	-0.136392	-0.189147	0.193096	-0.105961	0.095995	-0.40784	-0.32951	-0.612282	-0.963075
-1.325451	-0.798684	-0.739006	-1.538259	-0.030401	0.320981	-0.357739	-0.143467	-0.27504	0.006714	-0.213645	-0.090455	-0.198788	-0.133428	-0.11747	-0.787253
-1.192902	-0.584097	-0.466686	-1.447825	-0.22899	0.116846	-0.480105	-0.349184	-0.298425	-0.016018	-0.168033	-0.067037	-0.241429	-0.160409	-0.172396	-0.794598
-1.059638	-0.691666	-0.583043	-1.487572	-0.141567	0.195474	-0.415514	-0.308155	-0.492557	-0.2814	-0.389581	-0.411222	-0.513189	-0.349876	-0.837183	-0.912767
-0.757974	-0.497691	-0.302563	-1.366833	-0.259319	0.070058	-0.54203	-0.451927	-0.461424	-0.193889	-0.342472	-0.291242	-0.347604	-0.141247	-0.402579	-0.835457
-1.39092	-1.024691	-0.774428	-1.528744	-0.491894	-0.113615	-0.670603	-0.588632	-0.376136	-0.058902	-0.148093	-0.042293	-0.288003	-0.078828	-0.281411	-0.838833
-0.655478	-0.427151	-0.424769	-1.320013	-0.464627	-0.031107	-0.6979	-0.56047	-0.499883	-0.134454	-0.188491	-0.099219	-0.456984	-0.162232	-0.542834	-0.857527
-1.39092	-0.686875	-0.85878	-1.501281	-0.723507	-0.225274	-0.859445	-0.790566	-0.61532	-0.350383	-0.376316	-0.316338	-0.439701	-0.204748	-0.596689	-0.863764
-1.622874	-0.617043	-0.783737	-1.480722	-0.711325	-0.158109	-0.84552	-0.763195	-0.600362	-0.323255	-0.280537	-0.141288	-0.293258	-0.038461	-0.150539	-0.717005
-1.158192	-0.541098	-0.736965	-1.436891	-0.867659	-0.305035	-0.896529	-0.839369	-0.662139	-0.41147	-0.345708	-0.182996	-0.430174	-0.146894	-0.411962	-0.790401
-0.655478	-0.394783	-0.60923	-1.37843	-0.855129	-0.33102	-0.907802	-0.858454	-0.799455	-0.543068	-0.428421	-0.318728	-0.500642	-0.224223	-0.520212	-0.872319
-0.923637	-0.79355	-0.873385	-1.455129	-0.920199	-0.330383	-0.939639	-0.924023	-0.943634	-0.736154	-0.629537	-0.557125	-0.692493	-0.418084	-0.979999	-1.052271
-0.757974	-0.526447	-0.620747	-1.397273	-0.823407	-0.20725	-0.932353	-0.885261	-0.884257	-0.606101	-0.491125	-0.336929	-0.7001	-0.462147	-1.011505	-1.113691
-0.896539	-0.752342	-0.792525	-1.486582	-0.740483	-0.1342	-0.893227	-0.822903	-1.07211	-0.802058	-0.602059	-0.526797	-0.593288	-0.344641	-0.735317	-1.045627
-0.997938	-0.790611	-0.934645	-1.526219	-0.945264	-0.268631	-0.973082	-0.950957	-1.07211	-0.768205	-0.55632	-0.47095	-0.565005	-0.294886	-0.671156	-1.006402
-1.127579	-0.985211	-0.991454	-1.536596	-0.860612	-0.188063	-0.977416	-0.909735	-1.094568	-0.747502	-0.55632	-0.494728	-0.703097	-0.367246	-0.852388	-1.011026
-0.69731	-0.673979	-0.707046	-1.386924	-0.824442	-0.180332	-0.951253	-0.8446	-1.034514	-0.694654	-0.533756	-0.50964	-0.558197	-0.30472	-0.671156	-0.952052
-0.831885	-0.763632	-0.72978	-1.407089	-0.899619	-0.257593	-0.975969	-0.911604	-0.944309	-0.575443	-0.445437	-0.383342	-0.529874	-0.222409	-0.542302	-0.819972
-0.961526	-0.741129	-0.809672	-1.424253	-0.821506	-0.153527	-0.912009	-0.853343	-0.935907	-0.581083	-0.45964	-0.421636	-0.587668	-0.313126	-0.756785	-0.892095
-0.827285	-0.644281	-0.678123	-1.397953	-0.92631	-0.326795	-0.961511	-0.899743	-0.800097	-0.482117	-0.388359	-0.318728	-0.535793	-0.315301	-0.799373	-0.8798
-1.22569	-0.910541	-0.913137	-1.46483	-0.762954	-0.219288	-0.926667	-0.852782	-0.716807	-0.409634	-0.35353	-0.239603	-0.500642	-0.320715	-0.563373	-0.832718
-1.325451	-0.894632	-0.838739	-1.474538	-0.648803	-0.115011	-0.885846	-0.794951	-0.747085	-0.430656	-0.382691	-0.310943	-0.611502	-0.448486	-0.863973	-0.929054
-1.192902	-0.883955	-0.798851	-1.494843	-0.727549	-0.145779	-0.875589	-0.813782	-0.671111	-0.331203	-0.276242	-0.135489	-0.611502	-0.416061	-0.831632	-0.910561
-1.160198	-0.868005	-0.787302	-1.421251	-0.861344	-0.342305	-0.952758	-0.923459	-0.822501	-0.497373	-0.429767	-0.420751	-0.5733	-0.416061	-0.906274	-0.943892
-1.719077	-1.11722	-1.05006	-1.554791	-0.585562	-0.033654	-0.844989	-0.732783	-0.822501	-0.512648	-0.408418	-0.365085	-0.684262	-0.461803	-0.960176	-0.954962
-1.358154	-0.94242	-0.924685	-1.471606	-0.734466	-0.20376	-0.914901	-0.853929	-0.860466	-0.554523	-0.448867	-0.420751	-0.55535	-0.329801	-0.821605	-0.86848
-1.914848	-1.149179	-1.124134	-1.558744	-0.577662	-0.033743	-0.895993	-0.759729	-0.853007	-0.548879	-0.51446	-0.46848	-0.404928	-0.264549	-0.606862	-0.781653
