fnirSoft:	Exported Text File
Version:	4.2
ExportDate:	12/18/2023 11:14:37 AM
VariableInfo
Name:	oxygraph9.hbo.Block1
Size:	2118 x 16
Type:	Numeric
Content:	Hemoglobin
Date:	12/18/2023 11:14:26 AM
Notes:	Oxygenated-hemoglobin concentration changes data saved by Oxygraph from file C:\Users\Anette Johansson\Documents\COBI Studio Data\friska kontroller\2011K\MALIN_2011K_1_04260836.oxy
Labels:	HBO	DATA
VariableData
Hemoglobin	Hemoglobin	Hemoglobin	Hemoglobin	Hemoglobin	Hemoglobin	Hemoglobin	Hemoglobin	Hemoglobin	Hemoglobin	Hemoglobin	Hemoglobin	Hemoglobin	Hemoglobin	Hemoglobin	Hemoglobin
Optode1	Optode2	Optode3	Optode4	Optode5	Optode6	Optode7	Optode8	Optode9	Optode10	Optode11	Optode12	Optode13	Optode14	Optode15	Optode16
-0.414173	-0.229393	-0.324921	-0.393429	-0.836546	-0.361487	-0.456664	-0.612037	-0.542993	-0.320678	-0.396094	-0.532085	-0.171487	-0.408588	-0.017463	0.308986
-0.584435	-0.212278	-0.204593	-0.3688	-0.813436	-0.317829	-0.431057	-0.580674	-0.482117	-0.30203	-0.33158	-0.448815	-0.198282	-0.450292	-0.035893	0.342417
-0.659645	-0.340699	-0.361847	-0.489084	-0.698202	-0.232471	-0.366489	-0.454627	-0.460588	-0.323025	-0.310762	-0.447925	-0.065138	-0.323842	0.114138	0.46013
-0.716627	-0.156538	-0.35747	-0.434391	-0.859681	-0.407363	-0.470061	-0.643403	-0.337617	-0.164535	-0.169252	-0.237628	0.207733	-0.092643	0.518511	0.696371
-0.52762	0.038913	-0.227096	-0.396704	-0.844469	-0.364709	-0.432222	-0.596079	-0.216521	-0.032296	-0.037982	-0.027476	0.087272	-0.176125	0.299281	0.663261
-0.301298	0.293939	-0.068906	-0.314782	-0.675116	-0.189716	-0.355386	-0.422617	-0.397708	-0.243774	-0.17069	-0.257113	0.007872	-0.196776	0.182419	0.646492
-0.171868	0.33356	-0.050919	-0.274928	-0.763679	-0.322005	-0.435741	-0.54759	-0.377029	-0.222754	-0.18189	-0.23247	0.000137	-0.259705	-0.041065	0.61298
-0.249182	0.271131	-0.181174	-0.308754	-0.694475	-0.258881	-0.364553	-0.466944	-0.298275	-0.1299	-0.072333	-0.040875	-0.032535	-0.302436	0.087995	0.578757
-0.697311	0.147162	-0.241161	-0.389178	-0.655877	-0.214025	-0.338851	-0.434863	-0.279679	-0.132395	-0.040126	0.04478	0.182051	-0.069837	0.376831	0.71407
-0.395927	0.322041	-0.157713	-0.349454	-0.706254	-0.281343	-0.368054	-0.448496	-0.278629	-0.090344	-0.062042	-0.018016	0.175007	-0.068886	0.329567	0.697342
-0.678318	0.322041	-0.296956	-0.389178	-0.683	-0.194575	-0.320041	-0.400255	-0.340629	-0.153402	-0.08351	-0.039725	0.122777	-0.154541	0.316489	0.62903
-0.88483	0.102144	-0.436011	-0.448235	-0.582596	-0.060275	-0.216991	-0.275409	-0.279679	-0.071834	-0.007045	0.110026	0.198742	-0.04858	0.346647	0.662511
-0.232419	0.422082	-0.145293	-0.266255	-0.632695	-0.127324	-0.245001	-0.321024	-0.296224	-0.101365	-0.096534	-0.035184	0.122777	-0.11209	0.140166	0.476741
-0.566009	0.287196	-0.301797	-0.330098	-0.756238	-0.215019	-0.247269	-0.366801	-0.211168	0.01183	-0.097939	-0.011159	0.141753	-0.069589	0.226167	0.392434
-0.530093	0.168754	-0.324999	-0.347435	-0.798731	-0.303828	-0.288889	-0.38108	-0.293188	-0.107583	-0.174127	-0.13961	0.117928	-0.089774	0.057913	0.242315
-0.659645	0.068513	-0.407983	-0.3688	-0.794753	-0.301688	-0.288889	-0.380474	-0.212228	-0.027972	-0.117545	-0.036311	0.04069	-0.132377	-0.088548	0.109586
-0.659645	0.127957	-0.218966	-0.288431	-0.756238	-0.257852	-0.251852	-0.315847	-0.211168	-0.001739	-0.118487	-0.056932	-0.113568	-0.323362	-0.297888	-0.022314
-1.216368	-0.392164	-0.601251	-0.503929	-0.702314	-0.194575	-0.190038	-0.265997	-0.126844	0.083162	-0.0755	0.028975	-0.324077	-0.513811	-0.705597	-0.186706
-0.588065	-0.070705	-0.297861	-0.303949	-0.683	-0.195575	-0.191172	-0.249131	-0.103781	0.090887	-0.098413	-0.011159	-0.221243	-0.42918	-0.426157	-0.152827
-0.882778	-0.228566	-0.435589	-0.402316	-0.61734	-0.199674	-0.134849	-0.230293	-0.192531	-0.027972	-0.168778	-0.059165	-0.248674	-0.61881	-0.653927	-0.235475
-0.790592	-0.207017	-0.376333	-0.51248	-0.402859	-0.133066	0.019352	-0.199088	-0.319974	-0.346663	-0.24942	-0.143795	-0.051566	-0.576356	-0.589512	-0.137468
-1.308317	-0.606187	-0.641171	-0.808342	-0.332127	-0.327441	0.070927	-0.362509	-0.511036	-0.632331	-0.331513	-0.32075	0.05328	-0.659954	-0.562517	-0.153723
-0.920469	-0.5943	-0.415821	-0.866187	-0.196983	-0.283476	0.161725	-0.427136	-0.600259	-0.885739	-0.350273	-0.370588	0.265054	-0.576103	-0.277993	-0.071014
-1.48226	-1.18598	-0.843231	-1.123696	-0.052557	-0.21806	0.266976	-0.413929	-0.645592	-0.883241	-0.307468	-0.330808	0.374792	-0.513815	-0.106806	-0.021309
-1.156748	-1.238253	-0.687132	-1.129851	-0.008083	-0.220135	0.347392	-0.429451	-0.647496	-0.97921	-0.20231	-0.377671	0.139615	-0.721648	-0.57371	-0.2339
-1.211293	-1.369822	-0.87458	-1.191921	-0.085052	-0.170208	0.20903	-0.468156	-0.567453	-0.950281	-0.08729	-0.341436	0.215026	-0.555742	-0.291818	-0.037631
-0.829224	-0.889006	-0.614149	-0.988268	-0.561068	-0.38939	-0.11364	-0.707136	-0.547173	-0.894755	-0.043758	-0.328011	-0.141834	-0.824284	-0.408591	-0.167808
-1.230075	-1.055597	-0.807732	-1.051685	-0.56301	-0.141543	-0.196775	-0.557772	-0.562475	-0.901189	-0.089397	-0.365965	-0.692005	-1.195289	-1.137184	-0.461328
-0.655481	-0.620661	-0.427784	-0.744244	-1.034727	-0.584643	-0.508248	-0.908609	0.133385	0.10969	0.684243	0.905498	-1.150471	-1.4097	-1.984989	-0.613375
-0.580589	-0.45556	-0.43025	-0.657894	-0.900425	-0.305306	-0.477974	-0.708542	0.181923	0.273847	0.694601	0.980689	-1.00882	-1.2447	-1.724694	-0.450748
-0.01675	-0.119995	-0.240237	-0.45295	-0.820841	-0.071895	-0.519702	-0.536012	-0.068638	-0.03404	0.355596	0.523559	-0.722518	-0.909907	-1.039727	-0.186706
-0.215954	-0.047479	-0.308858	-0.407173	-1.044147	-0.205504	-0.650979	-0.688585	-0.285009	-0.329724	0.060988	0.112233	-0.474691	-0.597192	-0.718034	0.043655
-0.249182	-0.036501	-0.408385	-0.431884	-1.14938	-0.247156	-0.792464	-0.783602	-0.426045	-0.525498	-0.078704	-0.079056	-0.717614	-0.722887	-0.977209	-0.088302
-0.998277	-0.408906	-0.774342	-0.553959	-1.04369	-0.075829	-0.78778	-0.675867	-0.486747	-0.639198	-0.230498	-0.26654	-0.708035	-0.722477	-0.840251	-0.104061
-0.266247	0.035545	-0.50437	-0.357036	-1.247242	-0.294504	-0.934415	-0.892938	-0.588431	-0.7553	-0.316236	-0.351186	-0.53426	-0.492443	-0.614833	-0.005067
-0.978222	-0.428685	-0.869899	-0.555038	-1.156438	-0.098838	-0.880784	-0.802104	-0.648194	-0.830557	-0.403988	-0.474753	-0.514335	-0.45054	-0.559442	-0.004968
-0.436701	-0.069581	-0.590951	-0.415605	-1.299474	-0.293516	-0.967647	-0.909109	-0.60892	-0.67563	-0.293446	-0.310449	-0.450582	-0.388321	-0.426828	0.011558
-0.490305	-0.07003	-0.595851	-0.343492	-1.212679	-0.162876	-0.918872	-0.815564	-0.649862	-0.750878	-0.348155	-0.393968	-0.528549	-0.534371	-0.565809	-0.053991
-0.678318	-0.075433	-0.627817	-0.36376	-1.212679	-0.099684	-0.836687	-0.704346	-0.727711	-0.854462	-0.471171	-0.579034	-0.264242	-0.262984	-0.112818	0.17551
-0.978222	-0.44818	-0.825417	-0.443956	-1.3369	-0.251876	-0.887978	-0.79555	-0.667856	-0.678201	-0.30763	-0.371583	-0.477336	-0.534297	-0.588663	0.011298
-0.266247	0.096875	-0.40345	-0.210026	-1.26201	-0.209197	-0.85339	-0.683934	-0.60551	-0.669318	-0.32038	-0.413395	-0.338355	-0.4304	-0.259162	0.159235
-0.791193	-0.177085	-0.61072	-0.272945	-1.07022	-0.017339	-0.736128	-0.508201	-0.500035	-0.53851	-0.214518	-0.262293	-0.478748	-0.555206	-0.527027	0.109895
-0.283617	0.208991	-0.242321	-0.095254	-1.225666	-0.215019	-0.776827	-0.599453	-0.474126	-0.541224	-0.263116	-0.404938	-0.386034	-0.471498	-0.380203	0.19254
-0.414173	0.062593	-0.329416	-0.160076	-1.05525	-0.103158	-0.725306	-0.523479	-0.451673	-0.541224	-0.220168	-0.362841	-0.408763	-0.429377	-0.343967	0.242318
-0.508802	0.006908	-0.371179	-0.140561	-1.166325	-0.216023	-0.754026	-0.567015	-0.41105	-0.524909	-0.185367	-0.368616	-0.254535	-0.324535	-0.19955	0.308757
-0.566239	0.062593	-0.376416	-0.145369	-0.930997	0.001638	-0.631494	-0.425222	-0.345051	-0.457858	-0.133616	-0.300203	-0.458823	-0.534297	-0.46196	0.126288
-0.85088	-0.177085	-0.422478	-0.181522	-0.953895	-0.019888	-0.654407	-0.474418	-0.384085	-0.532295	-0.223916	-0.446163	-0.383316	-0.429649	-0.350766	0.175982
-0.546764	-0.137742	-0.366918	-0.161997	-0.995812	-0.149718	-0.703636	-0.538768	-0.445764	-0.615661	-0.277706	-0.532085	-0.421766	-0.450607	-0.409616	0.142936
-0.356244	0.069068	-0.259734	-0.102423	-1.02273	-0.193584	-0.728829	-0.601186	-0.406652	-0.5204	-0.200246	-0.406776	-0.305148	-0.387925	-0.159456	0.142932
-0.756251	-0.320485	-0.464476	-0.239029	-0.919767	-0.062901	-0.691623	-0.538768	-0.488201	-0.636472	-0.288455	-0.532085	-0.574163	-0.597046	-0.670362	-0.038181
-0.641644	-0.208312	-0.422478	-0.217578	-0.999761	-0.149718	-0.701307	-0.555289	-0.41016	-0.506368	-0.197638	-0.367639	-0.494428	-0.534339	-0.588663	-0.021413
-0.586048	-0.231843	-0.483699	-0.240036	-0.938794	-0.062901	-0.666429	-0.44383	-0.430049	-0.480994	-0.220168	-0.407704	-0.623623	-0.659461	-0.708233	-0.119542
0.175643	0.219107	-0.16682	-0.058863	-0.927118	-0.038813	-0.652118	-0.413971	-0.469881	-0.557588	-0.330268	-0.532912	-0.645027	-0.659565	-0.650053	-0.103197
-0.094108	-0.141299	-0.310955	-0.114715	-1.006921	-0.104952	-0.691623	-0.50693	-0.449107	-0.534522	-0.298071	-0.490002	-0.434812	-0.471758	-0.397655	0.027903
0.001024	-0.047479	-0.278554	-0.057145	-0.984046	-0.082602	-0.628079	-0.445165	-0.305219	-0.392883	-0.188962	-0.32075	-0.481594	-0.492381	-0.497711	0.011245
-0.146578	-0.025572	-0.264466	-0.060613	-0.908122	0.001638	-0.595368	-0.395956	-0.240691	-0.285775	-0.136651	-0.254074	-0.423149	-0.492381	-0.44232	0.011187
-0.337607	-0.03103	-0.296956	-0.099675	-1.010853	-0.106783	-0.619456	-0.475711	-0.22275	-0.313872	-0.102285	-0.216077	-0.617185	-0.6182	-0.694027	-0.038463
-0.37521	-0.142982	-0.35747	-0.102423	-1.048775	-0.191631	-0.678447	-0.571792	-0.324203	-0.434688	-0.157697	-0.363789	-0.538629	-0.597136	-0.667515	-0.038271
-0.43274	-0.114433	-0.329416	-0.118279	-1.010853	-0.149718	-0.630352	-0.525379	-0.323286	-0.390564	-0.126375	-0.362841	-0.529009	-0.597404	-0.771823	-0.055253
-0.077239	-0.052986	-0.19557	-0.095254	-1.094641	-0.256832	-0.715646	-0.651699	-0.303344	-0.413791	-0.115581	-0.342276	-0.501573	-0.597136	-0.608905	-0.038271
-0.566009	-0.350888	-0.407983	-0.212798	-1.018757	-0.235435	-0.728829	-0.620002	-0.28153	-0.327727	-0.08318	-0.300203	-0.445916	-0.576203	-0.579565	-0.021753
-0.753037	-0.3948	-0.472522	-0.251606	-1.02273	-0.258881	-0.731197	-0.618823	-0.195907	-0.25524	-0.02121	-0.208804	-0.251968	-0.345973	-0.243852	0.109974
-0.697311	-0.340699	-0.394248	-0.214686	-1.106719	-0.345534	-0.780433	-0.696446	-0.301491	-0.341673	-0.086219	-0.339411	-0.391568	-0.471378	-0.553239	-0.005248
-0.88483	-0.472597	-0.533038	-0.294348	-1.064718	-0.257852	-0.717998	-0.602359	-0.196886	-0.217928	-0.042893	-0.295299	-0.445916	-0.576167	-0.588663	-0.070819
-0.791193	-0.42372	-0.510223	-0.23704	-0.995812	-0.236442	-0.695132	-0.539387	-0.279664	-0.299671	-0.075393	-0.360963	-0.4445	-0.576138	-0.562605	-0.037869
-0.232419	-0.234695	-0.334139	-0.134167	-1.025877	-0.297526	-0.691623	-0.541266	-0.256875	-0.292614	-0.055253	-0.3366	-0.563122	-0.680963	-0.760698	-0.087312
-0.939091	-0.613553	-0.481875	-0.253536	-0.866504	-0.362551	-0.502168	-0.683368	-0.105897	-0.462439	-0.121862	-0.427341	-0.538629	-0.906875	-0.76919	-0.232486
-1.051401	-0.522458	-0.500725	-0.28558	-0.706254	-0.217037	-0.291932	-0.58707	0.190556	-0.485534	-0.170208	-0.32875	-0.417318	-0.803766	-0.641117	-0.102448
-0.978222	-0.353896	-0.431986	-0.28009	-0.815801	-0.346634	-0.258461	-0.634689	0.23901	-0.416248	-0.204307	-0.347168	-0.392972	-0.803748	-0.55632	-0.053724
-0.530093	-0.239484	-0.287731	-0.256517	-0.726983	-0.281343	-0.131465	-0.555289	0.093065	-0.536235	-0.310762	-0.496137	-0.401567	-0.783299	-0.57371	0.011464
-0.249182	-0.086283	-0.208583	-0.160308	-0.76287	-0.263096	-0.103219	-0.552859	0.133508	-0.400183	-0.263469	-0.394961	-0.519564	-0.886789	-0.739947	-0.054601
0.190159	0.110309	-0.041997	-0.080939	-0.716817	-0.179184	-0.085159	-0.518559	0.133508	-0.335381	-0.209159	-0.244009	-0.370019	-0.700898	-0.55983	0.060354
-0.044406	0.078065	-0.092527	-0.063839	-0.673609	-0.157632	-0.072667	-0.455893	0.048404	-0.351428	-0.252804	-0.305254	-0.122998	-0.429928	-0.26483	0.258812
0.190159	0.154275	-0.000543	0.033573	-0.764237	-0.205018	-0.103494	-0.50018	-0.016303	-0.38837	-0.295445	-0.326716	-0.171694	-0.387251	-0.306718	0.292265
0.128836	0.178002	-0.036208	0.08699	-0.56839	0.098451	0.046916	-0.2579	0.113296	-0.14844	-0.168778	-0.085356	0.057125	-0.112544	0.083807	0.492765
0.20816	0.234149	0.020303	0.164283	-0.584891	0.071954	0.042379	-0.205935	0.07177	-0.180679	-0.224722	-0.166526	0.091341	-0.00519	0.12137	0.577065
0.192053	0.246015	0.077006	0.20138	-0.506077	0.18213	0.105326	-0.091702	0.19973	0.030447	-0.107276	0.028975	0.072284	-0.047579	0.178894	0.543782
-0.015898	0.16296	-0.072637	0.180443	-0.391582	0.313624	0.206272	0.040106	0.240174	0.11001	-0.04144	0.090728	0.0342	-0.132551	0.124866	0.544078
-0.146578	0.002364	-0.124021	0.13912	-0.177331	0.537134	0.373981	0.232877	0.28293	0.192238	0.023118	0.156133	0.04112	-0.067328	0.079983	0.612297
0.175643	0.207418	0.133904	0.199348	-0.216887	0.445603	0.343462	0.189013	0.242486	0.054205	-0.075962	0.006041	0.263313	0.059447	0.551765	0.74704
-0.033131	0.224934	0.073705	0.218277	-0.145342	0.470448	0.385652	0.232877	0.325736	0.131217	0.011495	0.090728	0.244164	0.037779	0.52085	0.712978
0.192053	0.379724	0.190998	0.239245	-0.2527	0.337168	0.283225	0.086606	0.284114	0.11263	0.010194	0.071367	0.107835	-0.089774	0.312771	0.594778
0.158925	0.314352	0.139858	0.218959	-0.415456	0.14023	0.185351	-0.109434	0.262717	0.086206	-0.011365	0.070162	0.114205	-0.091082	0.393443	0.593742
-0.111285	0.186069	0.007675	0.160157	-0.260657	0.296467	0.240032	0.03108	0.278138	0.115361	0.056261	0.149734	-0.177412	-0.386931	-0.052094	0.359186
-0.470852	0.152817	-0.010845	0.118779	-0.173446	0.384733	0.256772	0.045623	0.172742	-0.029734	-0.063835	-0.039725	-0.081191	-0.25998	-0.018424	0.442966
0.079744	0.403994	0.106766	0.179747	-0.423029	0.120226	0.118484	-0.147087	0.189384	0.020484	-0.007045	0.041122	-0.035153	-0.239439	0.151941	0.459448
-0.050679	0.467158	0.163898	0.197955	-0.241082	0.343115	0.185449	0.009803	0.170452	-0.032296	-0.096534	-0.103669	-0.110836	-0.323939	0.148349	0.425953
0.384109	0.506158	0.248288	0.259513	-0.371464	0.166381	0.109154	-0.084777	0.043099	-0.139896	-0.139006	-0.169704	-0.074357	-0.260448	0.186139	0.526532
0.062768	0.383014	0.130745	0.179044	-0.308226	0.211554	0.109154	-0.037072	0.104483	-0.04515	-0.104965	-0.108121	0.183197	-0.071772	0.534406	0.660128
-0.128774	0.332101	0.106766	0.160864	-0.351711	0.167217	0.122745	-0.068609	0.166976	0.017871	-0.0616	-0.066001	-0.052766	-0.323939	0.097668	0.476297
-0.337607	0.203278	-0.08627	0.0616	-0.391205	0.123733	0.085176	-0.134792	0.165807	-0.008359	-0.083062	-0.04553	0.161911	-0.092366	0.538806	0.643321
0.079744	0.481522	0.22409	0.221611	-0.383236	0.103732	0.073735	-0.13715	0.000749	-0.205238	-0.204807	-0.275665	-0.108138	-0.345125	0.124866	0.459361
-0.283617	-0.229393	0.106766	-0.168601	-0.021844	0.27767	0.558522	-0.190895	0.13019	-0.394848	-0.295046	-0.312566	-0.007257	-0.431495	0.346462	0.357143
0.160074	-0.12239	0.283694	-0.169083	-0.07684	0.212344	0.561847	-0.275563	0.068599	-0.444789	-0.239529	-0.256231	0.109742	-0.390994	0.394602	0.306808
-0.249182	-0.33219	0.058937	-0.318604	-0.096808	0.276919	0.497109	-0.180526	0.153703	-0.296122	-0.127855	-0.100543	0.088468	-0.369509	0.303512	0.356863
-0.641288	-0.423483	-0.030639	-0.352809	-0.16117	0.253562	0.406991	-0.225293	0.112213	-0.345326	-0.13083	-0.13881	0.030525	-0.389301	0.212654	0.390668
-0.791193	-0.358798	-0.100469	-0.374756	-0.225514	0.231747	0.320178	-0.286966	0.240174	-0.16725	-0.036309	0.056546	0.083635	-0.221007	0.163894	0.524472
-0.044406	-0.035895	0.184695	-0.16247	-0.20133	0.251968	0.308551	-0.220631	0.242486	-0.089335	-0.039693	0.062818	0.122777	-0.178436	0.281442	0.592045
-0.508802	-0.293827	-0.152239	-0.244719	-0.157099	0.339469	0.322259	-0.154825	0.160299	-0.134068	-0.085789	-0.059165	0.432679	0.180253	0.756289	0.894299
-0.060673	-0.067505	0.109915	-0.08874	-0.157099	0.362113	0.284276	-0.137942	0.225609	-0.042574	-0.021693	0.071367	0.214285	-0.007244	0.35467	0.72833
0.160074	-0.061688	0.142854	-0.012863	-0.080715	0.35988	0.258977	-0.120244	0.392535	0.120475	0.098982	0.239544	0.196414	-0.028174	0.385293	0.745647
-0.094108	0.005118	0.139858	0.002742	-0.096967	0.357562	0.282169	-0.11709	0.501403	0.24715	0.185026	0.372209	0.309672	0.142136	0.600396	0.847179
-0.128774	-0.097475	0.103111	0.018863	0.048593	0.491778	0.32122	-0.037072	0.313752	0.03351	0.051199	0.162394	0.254692	0.07781	0.538806	0.779687
0.399702	0.286499	0.38792	0.213219	0.048593	0.491778	0.334928	-0.038722	0.396233	0.128502	0.106959	0.222962	0.130749	-0.047819	0.312771	0.72973
-0.077239	-0.053671	0.212108	0.05744	0.064856	0.468361	0.308551	-0.100937	0.417759	0.107396	0.106959	0.22426	0.095168	-0.111665	0.309002	0.662074
0.20816	0.16616	0.38792	0.155181	0.097038	0.449148	0.286368	-0.0888	0.291106	-0.029734	-0.003729	0.032458	0.192862	-0.027311	0.4591	0.712255
0.745308	0.412928	0.548058	0.253426	0.085135	0.491097	0.296933	-0.070224	0.291106	-0.008665	0.039061	0.099173	0.192862	-0.006322	0.547486	0.745647
0.430001	0.330682	0.463667	0.233589	0.113353	0.493768	0.262136	-0.087989	0.241333	-0.04515	0.053773	0.111274	0.100156	-0.028174	0.481576	0.72833
0.033956	0.160223	0.287811	0.136414	0.182025	0.516388	0.278909	-0.009776	0.240174	-0.024155	0.052924	0.113753	0.177388	-0.006929	0.600396	0.761861
-0.283617	0.172086	0.245416	0.096652	0.137562	0.559778	0.266293	0.007238	0.195186	-0.068699	0.021411	0.088264	-0.054089	-0.239292	0.186139	0.577198
0.049972	0.280378	0.339053	0.155728	-0.068646	0.35988	0.091226	-0.167032	0.192882	-0.010969	0.086575	0.174098	-0.127014	-0.239292	0.11783	0.57664
0.017641	0.316951	0.345525	0.231028	-0.16117	0.272218	0.036231	-0.185434	0.124551	-0.128477	0.066222	0.103704	0.069552	-0.070625	0.411755	0.744983
0.303803	0.532659	0.336482	0.287759	-0.181008	0.318335	0.030203	-0.173268	0.001796	-0.35228	-0.045049	-0.085356	0.010385	-0.091324	0.385293	0.814023
0.175643	0.563658	0.27553	0.266117	-0.204925	0.298735	-0.016387	-0.192485	0.046299	-0.292453	-0.002368	-0.084227	0.06591	-0.027037	0.473028	0.848437
-0.111285	0.377063	0.117748	0.207667	-0.316722	0.25277	-0.055846	-0.253452	0.177257	-0.173365	0.047179	0.008354	0.045734	-0.090617	0.29744	0.797729
0.20816	0.59648	0.293926	0.345717	-0.232901	0.384733	0.006355	-0.172477	0.326946	-0.029341	0.136141	0.112516	0.009133	-0.132922	0.320041	0.780557
0.731644	0.803626	0.505902	0.445519	-0.35244	0.166381	-0.105529	-0.315303	0.307902	0.04939	0.091893	0.025441	0.048206	-0.069114	0.376981	0.781162
0.814115	0.706084	0.463667	0.501723	-0.451752	0.076689	-0.178792	-0.36192	0.393773	0.165676	0.102304	0.048387	-0.121676	-0.238892	0.141037	0.561211
0.937364	0.758007	0.481225	0.558995	-0.415456	0.144619	-0.199017	-0.34661	0.375929	0.176325	0.078364	0.073759	-0.003542	-0.175569	0.407526	0.577684
0.495859	0.407788	0.245416	0.417344	-0.423029	0.103732	-0.230427	-0.348726	0.243634	0.022737	0.014669	-0.059165	-0.137862	-0.302524	0.201945	0.493493
0.384109	0.636925	0.287811	0.397657	-0.478936	0.056792	-0.293127	-0.378605	0.178372	-0.061713	-0.028151	-0.103669	-0.135255	-0.323939	0.25903	0.493338
0.480526	0.516787	0.212108	0.357732	-0.470701	0.015253	-0.338851	-0.395956	0.157026	-0.003524	0.026884	-0.061421	-0.058799	-0.260583	0.293502	0.510053
0.717699	0.808729	0.381209	0.399299	-0.446852	0.03961	-0.346542	-0.382076	0.030238	-0.145964	-0.039447	-0.167579	-0.098952	-0.323939	0.25903	0.476382
0.079744	0.436336	-0.015296	0.199348	-0.280487	0.170465	-0.245075	-0.225293	0.112213	-0.05079	0.027793	-0.107	-0.234483	-0.471335	0.04987	0.392489
0.592275	0.953747	0.439069	0.35946	-0.431163	-0.026167	-0.369899	-0.398723	-0.013283	-0.211461	-0.093983	-0.34036	0.018925	-0.282772	0.450968	0.542189
-0.033131	0.447662	-0.0248	0.120274	-0.304284	0.106245	-0.294144	-0.289985	0.029218	-0.150919	-0.028151	-0.256094	0.093172	-0.220274	0.568049	0.591851
0.688953	0.947277	0.330126	0.281597	-0.466605	-0.088075	-0.378716	-0.433353	-0.032556	-0.213903	-0.05124	-0.298224	-0.004772	-0.366955	0.364213	0.475059
-0.094108	-0.25096	-0.114755	-0.539674	-0.128937	-0.085296	-0.101122	-0.453446	0.231118	-0.320583	0.293375	-0.206648	-0.241474	-0.742633	0.008866	0.34167
0.20816	-0.102635	0.139858	-0.744244	-0.201892	-0.112505	-0.123557	-0.512753	0.251514	-0.371768	0.315084	-0.229195	-0.224061	-0.763295	-0.051424	0.34167
-0.015898	-0.008748	-0.05324	-0.777006	-0.149	-0.043174	-0.150667	-0.454871	0.139995	-0.410619	0.216765	-0.27308	-0.244328	-0.742462	-0.138327	0.325335
-0.033131	0.224934	-0.010845	-0.681351	-0.236941	0.000782	-0.206886	-0.486526	0.05357	-0.447081	0.117368	-0.39596	-0.128369	-0.680173	0.012464	0.425552
-0.319293	0.029931	-0.260562	-0.738904	-0.320821	-0.023419	-0.278549	-0.516783	0.010967	-0.483602	0.040389	-0.414364	-0.054089	-0.617803	0.167707	0.543444
0.287952	0.687031	0.106766	-0.475889	-0.372325	-0.022522	-0.287458	-0.517466	-0.051889	-0.552226	-0.093482	-0.600393	0.086068	-0.513662	0.429416	0.644233
-0.43274	0.288255	-0.23727	-0.575786	-0.188963	0.192174	-0.201365	-0.358228	0.032262	-0.384167	0.005241	-0.431013	0.102601	-0.513538	0.407526	0.627865
0.399702	0.849369	0.097622	-0.310796	-0.428707	-0.094896	-0.354601	-0.574886	0.010967	-0.377016	-0.04881	-0.452436	0.274868	-0.283138	0.766277	0.813054
-0.319293	0.566977	-0.147847	-0.392151	-0.236941	0.124585	-0.242748	-0.400833	-0.067627	-0.416101	-0.119204	-0.551925	0.236785	-0.303971	0.735522	0.796136
-0.128774	0.835735	0.060555	-0.203112	-0.240995	0.12287	-0.183315	-0.382076	0.038197	-0.309126	-0.0439	-0.379769	0.333151	-0.219393	0.797059	0.864397
-0.22416	0.756423	0.03223	-0.148605	-0.377299	-0.03392	-0.239497	-0.489728	0.122785	-0.188015	0.067045	-0.190269	0.309672	-0.134206	0.750066	0.950788
0.175643	1.24499	0.394411	0.081368	-0.257358	0.096613	-0.130345	-0.37724	0.145247	-0.162077	0.098737	-0.145923	0.374449	-0.071772	0.996968	1.052173
-0.128774	1.086365	0.156353	0.001503	-0.165257	0.246957	-0.036445	-0.27822	0.294527	0.004166	0.252967	0.089499	0.330981	-0.048848	0.776117	1.055118
-0.094108	1.086365	0.165771	0.059851	-0.120965	0.314433	0.025909	-0.231426	0.27854	-0.065283	0.161855	-0.034063	0.424473	0.058847	0.961849	1.176385
0.158925	1.253269	0.314832	0.192789	-0.25806	0.155598	-0.005655	-0.323694	0.34444	-0.022933	0.195049	0.053118	0.306279	-0.025543	0.754838	1.109095
-0.050679	1.347151	0.348516	0.211629	-0.048572	0.469066	0.146763	-0.166267	0.281787	-0.081488	0.149579	-0.028544	0.149827	-0.131612	0.516624	1.041493
0.141894	1.260061	0.271785	0.210534	-0.20133	0.312805	0.093398	-0.27822	0.236485	-0.21552	0.063283	-0.117862	0.144763	-0.066864	0.374468	1.042419
0.335512	1.502636	0.41598	0.327698	-0.06073	0.492451	0.182325	-0.199997	0.387714	-0.112521	0.117762	0.014034	0.129485	-0.067011	0.454981	1.058985
0.800147	1.633394	0.580211	0.428013	-0.233227	0.334781	0.126727	-0.309665	0.367205	-0.147394	0.115889	0.061177	0.10259	0.019893	0.320179	1.146749
0.883096	1.759662	0.555395	0.427627	-0.197236	0.42129	0.187498	-0.195524	0.28071	-0.192033	0.08459	-0.026377	0.217576	0.149711	0.529177	1.21618
0.352019	1.459935	0.318248	0.328179	-0.341536	0.31029	0.133851	-0.321024	0.34444	-0.126262	0.106392	0.060043	0.298078	0.235837	0.680147	1.268342
0.238572	1.459935	0.284753	0.308236	-0.253245	0.443361	0.246334	-0.175712	0.39114	-0.055343	0.09358	0.086507	0.362609	0.320811	0.847825	1.301765
0.221488	1.146261	0.098938	0.209409	-0.189093	0.509657	0.323293	-0.063062	0.302314	-0.16125	0.041026	0.016266	0.244164	0.192237	0.613675	1.215577
0.448959	1.391736	0.412421	0.34856	-0.245064	0.400016	0.297976	-0.097032	0.368334	-0.114049	0.017262	-0.002339	0.241734	0.257206	0.680147	1.249984
0.868816	1.424103	0.479442	0.349009	-0.22101	0.447049	0.312698	-0.114759	0.412836	-0.029147	0.094061	0.086507	0.441533	0.407568	1.003342	1.352385
1.064555	1.542131	0.622606	0.369305	-0.189093	0.444865	0.311667	-0.129404	0.369457	-0.092842	0.028655	-0.046116	0.303977	0.277866	0.680147	1.196677
0.741367	1.330954	0.418922	0.290269	-0.193157	0.467647	0.299015	-0.161746	0.580546	0.123083	0.229923	0.272006	0.250094	0.233584	0.785807	1.177421
0.432716	1.08559	0.360885	0.193329	-0.233227	0.311976	0.211645	-0.243183	0.496127	0.005834	0.106392	0.145367	0.095168	0.104576	0.485789	1.02278
-0.008316	0.737627	0.046494	0.056191	-0.169052	0.423572	0.240032	-0.212385	0.388861	-0.140094	-0.004003	-0.0493	0.111682	0.062238	0.489961	0.937399
0.643631	1.104261	0.360885	0.233091	-0.100868	0.491778	0.243147	-0.150916	0.428675	-0.062794	0.107325	0.099173	0.130749	0.083546	0.609289	0.988186
0.41616	0.849369	0.12289	0.095459	-0.14096	0.447758	0.155084	-0.229957	0.385401	-0.105119	0.062318	0.014034	0.34344	0.277511	0.821644	1.107872
0.725924	1.012547	0.385332	0.193329	-0.124921	0.491097	0.169762	-0.148609	0.384236	-0.08644	0.085065	0.01291	0.303977	0.234263	0.764267	1.074078
0.009941	0.615187	0.056057	0.038147	-0.181008	0.447758	0.159308	-0.165505	0.467099	0.035572	0.184567	0.183035	0.245366	0.147925	0.764267	1.090981
0.6119	0.868824	0.27553	0.135291	-0.181008	0.425046	0.1729	-0.11709	0.423878	0.014379	0.140033	0.077305	0.109126	-0.002666	0.432289	0.971033
-0.008316	0.485316	-0.010652	-0.001721	-0.160989	0.424314	0.184412	-0.08319	0.399882	0.033011	0.140486	0.053118	0.269192	0.103178	0.811923	1.089739
0.577203	0.751806	0.245416	0.098951	-0.188963	0.361378	0.151979	-0.118661	0.35797	0.038131	0.13912	0.05545	0.246561	0.061077	0.764267	1.090981
0.062768	0.416064	0.093801	-0.0376	-0.384721	0.139323	0.035145	-0.260005	0.269632	-0.07277	0.086939	-0.10039	-0.007897	-0.216643	0.3783	0.885963
0.062768	0.467158	0.117748	-0.038259	-0.332545	0.162942	0.049806	-0.229228	0.249291	-0.065283	0.062318	-0.13961	0.049274	-0.173913	0.471206	0.937399
0.02787	0.608962	0.089458	-0.040277	-0.348349	0.121117	0.053018	-0.215338	0.20963	-0.097744	0.016245	-0.200846	0.074864	-0.216919	0.551765	0.902501
0.335512	0.660607	0.333404	0.017573	-0.188963	0.25277	0.129023	-0.135574	0.316053	-0.041612	0.148657	-0.074324	0.153538	-0.132377	0.780981	0.969246
-0.164703	0.428089	0.199235	-0.115829	-0.22101	0.164681	0.141528	-0.13715	0.341041	-0.034124	0.178223	-0.113718	0.209541	-0.111082	0.780981	1.002564
0.287952	0.616408	0.32739	-0.05422	-0.233227	0.14023	0.125901	-0.165505	0.359144	-0.025451	0.169138	-0.13961	0.167671	-0.195934	0.604863	0.91849
-0.111285	0.493861	0.227093	-0.131517	-0.193157	0.162058	0.151979	-0.102522	0.356791	-0.027972	0.181455	-0.143795	0.144763	-0.216919	0.463177	0.936061
0.033956	0.493861	0.117748	-0.149965	-0.153042	0.206613	0.151979	-0.085575	0.375929	0.006724	0.204225	-0.10257	0.124347	-0.216766	0.494092	0.919182
0.112774	0.641727	0.208571	-0.113045	-0.064698	0.251157	0.151979	-0.037072	0.397455	0.07023	0.227401	-0.062558	0.065687	-0.301957	0.343606	0.850814
-0.451631	0.639979	0.027214	-0.194087	0.007385	0.384733	0.242724	0.058393	0.441788	0.120474	0.225671	-0.015708	0.020592	-0.344677	0.172568	0.783032
0.2718	1.19621	0.452543	0.040599	-0.132968	0.227624	0.189561	-0.001381	0.487477	0.192215	0.268206	0.032458	0.204666	-0.110109	0.666666	0.935078
0.238572	1.24499	0.339186	0.016916	-0.000439	0.38257	0.253284	0.126865	0.445482	0.17352	0.213392	-0.097164	0.239272	-0.088434	0.556003	0.93533
0.238572	1.370366	0.434362	0.05682	-0.125029	0.333141	0.248263	0.084088	0.472001	0.226775	0.26602	0.017373	0.18303	-0.152529	0.52085	0.86706
-0.260602	0.84849	0.137364	-0.080939	0.028034	0.488994	0.324771	0.212885	0.470784	0.224136	0.233973	-0.071128	0.202179	-0.131132	0.52085	0.883888
0.480526	1.41691	0.443477	0.134141	-0.149238	0.330609	0.320808	0.135597	0.554985	0.347268	0.345087	0.123444	0.342305	0.017939	0.807005	0.984891
-0.068546	1.112653	0.247558	-0.004433	0.076219	0.555959	0.398507	0.294685	0.581824	0.358141	0.297688	0.108483	0.163891	-0.13103	0.543166	0.86684
0.674143	1.363226	0.51988	0.172864	0.02408	0.554611	0.423779	0.263802	0.624057	0.371452	0.33285	0.148947	0.240507	-0.045415	0.578374	0.917758
0.530184	1.377498	0.458944	0.112364	-0.016262	0.509657	0.420897	0.23106	0.540825	0.232046	0.219779	0.000871	0.238028	-0.045117	0.494092	0.918251
0.352019	1.124864	0.409824	0.055556	-0.028452	0.488994	0.436422	0.22831	0.474418	0.165221	0.19875	-0.045067	0.47678	0.168889	0.930826	1.036106
0.221488	0.954179	0.238132	0.034249	0.092504	0.666657	0.50063	0.323582	0.539585	0.224136	0.254585	0.042595	0.317288	0.019199	0.609289	0.918006
0.432716	0.999002	0.376203	0.055556	-0.080715	0.41972	0.419929	0.163894	0.625361	0.390178	0.332431	0.216139	0.478897	0.146746	0.863801	1.001327
0.204084	0.777812	0.23273	-0.003062	0.068399	0.621709	0.572155	0.275475	0.689423	0.435913	0.267774	0.173309	0.496033	0.189785	0.987622	1.069946
0.448959	0.81019	0.32739	0.056191	0.121221	0.576076	0.602036	0.27831	0.752124	0.537928	0.260635	0.257708	0.553851	0.189447	1.023975	1.139129
0.335512	0.85561	0.27553	0.036231	0.182025	0.643876	0.688787	0.294685	0.726133	0.4864	0.209761	0.208718	0.412355	0.061324	0.790594	1.072577
0.02787	0.674278	0.141738	-0.080216	0.19454	0.598243	0.786994	0.32842	0.529467	0.269539	0.058475	-0.008919	0.231684	-0.13103	0.467213	1.005851
0.186356	0.712414	0.189848	-0.024465	0.060847	0.442595	0.729969	0.199242	0.545869	0.258721	0.006163	-0.034063	0.115032	-0.259297	0.258376	0.955193
0.513896	0.868824	0.394411	0.016916	0.036533	0.397635	0.739081	0.184655	0.566137	0.293105	0.050762	0.073759	0.254737	-0.131481	0.52085	1.02329
0.530184	0.602726	0.27553	-0.021682	0.101441	0.466189	0.777819	0.201023	0.605238	0.330139	0.062873	0.091951	0.371469	-0.067674	0.671199	1.074365
0.883096	0.783877	0.421352	0.039387	0.19063	0.511776	0.791671	0.248345	0.580914	0.284862	0.031765	0.04478	0.249652	-0.259297	0.3783	0.920828
0.335512	0.603689	0.269649	-0.077397	0.19063	0.512463	0.766777	0.263802	0.555256	0.316236	0.065399	0.107514	0.355741	-0.132049	0.574001	0.987682
0.158925	0.240088	0.00356	-0.210219	0.270907	0.5806	0.784282	0.290869	0.469385	0.17614	-0.022139	-0.020348	0.235516	-0.238214	0.454981	0.902078
-0.164703	0.284546	-0.005843	-0.250016	0.137562	0.445603	0.705161	0.195643	0.510937	0.319021	0.064147	0.111274	0.160036	-0.302104	0.301336	0.816502
0.384109	0.381141	0.215135	-0.169083	0.03235	0.400791	0.666577	0.147579	0.384995	0.102132	-0.079744	-0.099309	0.156106	-0.323241	0.274488	0.81702
0.175643	0.172086	0.040675	-0.227108	0.056559	0.444865	0.681335	0.195643	0.384995	0.163007	-0.046911	-0.077573	0.271463	-0.216839	0.397456	0.885584
0.430001	0.36245	0.109915	-0.147274	0.084677	0.490405	0.695128	0.22831	0.486784	0.303341	0.074107	0.133062	0.215026	-0.259496	0.30519	0.902705
0.399702	0.463561	0.22409	-0.091896	0.076793	0.510373	0.706105	0.248345	0.510937	0.311629	0.039949	0.094381	0.078039	-0.386974	0.036448	0.783445
0.112774	0.172086	0.04983	-0.188902	0.145378	0.600197	0.77231	0.344825	0.535134	0.402449	0.07153	0.097984	0.258462	-0.259628	0.415943	0.919834
0.062768	0.323011	0.012913	-0.173399	0.137562	0.598904	0.797171	0.380592	0.472033	0.319894	0.049881	0.074947	0.099916	-0.4294	0.094269	0.80081
0.128836	0.292609	0.124907	-0.130836	0.178133	0.621071	0.797171	0.460892	0.493507	0.322644	0.04899	0.054287	0.216305	-0.259441	0.30519	0.903658
0.096411	0.272548	0.121583	-0.095233	0.081138	0.507452	0.742853	0.367986	0.599673	0.445179	0.148231	0.18051	0.252211	-0.216701	0.370592	0.972803
0.414997	0.565296	0.356763	-0.036306	0.235203	0.665447	0.822963	0.49693	0.558007	0.365323	0.103602	0.095588	0.136916	-0.301971	0.247518	0.938006
0.287952	0.546137	0.363464	-0.018369	0.202316	0.578718	0.760348	0.41251	0.432979	0.184283	0.015136	-0.075402	0.249652	-0.195284	0.316497	0.990436
0.20816	0.373629	0.221227	-0.076711	0.137562	0.468361	0.696064	0.346754	0.475966	0.266839	0.080608	0.031303	0.110912	-0.344587	0.138407	0.904649
-0.128774	0.39188	0.193723	-0.098752	0.198435	0.534534	0.70984	0.379617	0.520331	0.370865	0.167471	0.140512	0.031218	-0.429882	0.049174	0.887578
0.269638	0.343003	0.248288	-0.054859	0.166369	0.510373	0.681335	0.350573	0.435522	0.266839	0.04672	-0.0961	0.113668	-0.344527	0.2548	0.955971
-0.171868	0.32906	0.254503	-0.076711	0.137562	0.468361	0.685092	0.345791	0.501403	0.317688	0.088774	-0.072188	0.038334	-0.450667	0.131726	0.887292
0.568177	0.692739	0.5987	0.080815	0.117766	0.441819	0.681335	0.35152	0.436786	0.253573	0.066583	-0.13552	-0.002815	-0.535786	0.046061	0.853396
0.444716	0.539799	0.430235	-0.017728	0.121755	0.464693	0.683221	0.350573	0.393773	0.192215	-0.011351	-0.242453	0.073883	-0.471956	0.200104	0.939422
0.444716	0.654602	0.5987	0.060436	0.19063	0.510373	0.683221	0.415471	0.391292	0.165635	0.001938	-0.224522	0.04899	-0.514592	0.05526	0.922606
0.033956	0.349149	0.378958	-0.11373	0.231316	0.446331	0.686021	0.395074	0.478561	0.272237	0.064712	-0.178103	0.108123	-0.493149	0.206816	0.939729
-0.155052	0.192283	0.245416	-0.20801	0.293407	0.443361	0.696997	0.398997	0.477266	0.242828	0.099192	-0.160328	0.050429	-0.620049	0.144906	0.870847
-0.249182	0.122085	0.178832	-0.266032	0.313872	0.444865	0.707044	0.39997	0.481135	0.293596	0.10686	-0.131525	0.263747	-0.471775	0.42064	1.043862
-0.249182	0.139669	0.154767	-0.301859	0.330445	0.400791	0.720836	0.4135	0.397455	0.069605	-0.005543	-0.321707	0.225128	-0.492852	0.38209	1.043862
-0.309346	0.045615	0.106766	-0.394488	0.309956	0.334781	0.683221	0.347713	0.5001	0.155081	0.140486	-0.177127	0.419864	-0.386924	0.506234	1.11348
-0.232419	0.2282	0.239317	-0.375532	0.183267	0.20223	0.593451	0.249259	0.46085	0.077998	0.125388	-0.237869	0.619788	-0.259789	0.826447	1.164629
-0.283617	0.085565	0.051164	-0.474454	0.199185	0.1839	0.585476	0.196547	0.548501	0.173667	0.247141	-0.130542	0.398	-0.450667	0.38209	1.061585
0.112774	0.174538	0.202941	-0.415867	0.162418	0.117495	0.535362	0.145811	0.591774	0.155081	0.266901	-0.129564	0.419864	-0.4293	0.347385	1.00955
0.473297	0.36141	0.423285	-0.336086	0.056824	0.029331	0.536331	0.080684	0.639165	0.160364	0.27523	-0.147638	0.394222	-0.535941	0.175848	0.958105
0.033956	0.16296	0.254503	-0.415048	0.113763	0.04915	0.559923	0.115835	0.808932	0.37831	0.433911	0.040383	0.651144	-0.238034	0.568468	1.14848
-0.377996	-0.16938	-0.005843	-0.569133	0.195228	0.181231	0.672263	0.247427	0.730309	0.293596	0.331585	-0.085787	0.733593	-0.153083	0.857577	1.251258
0.017641	0.174538	0.254503	-0.415867	0.276879	0.268893	0.759434	0.346754	0.924108	0.539425	0.456315	0.105035	0.67287	-0.195518	0.71125	1.182532
0.062768	0.124937	0.141738	-0.477982	0.203697	0.201324	0.782454	0.30309	0.950578	0.593965	0.522833	0.192913	0.329335	-0.4514	0.120196	0.992803
0.897087	0.764829	0.54659	-0.245453	0.207687	0.224152	0.820258	0.335999	0.823357	0.392926	0.322689	-0.110673	0.568389	-0.25928	0.451771	1.131084
0.287952	0.383014	0.293926	-0.361317	0.195672	0.198548	0.829534	0.324136	0.908176	0.492045	0.402404	-0.006702	0.589107	-0.216593	0.599625	1.148009
0.287952	0.473222	0.369946	-0.360507	0.199692	0.200409	0.869272	0.324136	1.019603	0.605503	0.501465	0.168515	0.810852	-0.00306	0.924847	1.251258
-0.033131	0.39488	0.217857	-0.458093	0.220146	0.245209	0.881324	0.325046	1.041633	0.605503	0.490094	0.167302	0.56957	-0.21655	0.479065	1.078335
-0.146578	0.322041	0.132339	-0.478883	0.330445	0.333966	0.934068	0.405742	0.999113	0.543608	0.479074	0.102708	0.708736	-0.109722	0.720144	1.164364
-0.128774	0.4067	0.141738	-0.477982	0.33435	0.356771	0.960885	0.437834	1.110991	0.635773	0.533529	0.191698	0.62474	-0.15216	0.576565	1.09568
-0.22416	0.418472	0.132339	-0.479792	0.420219	0.467647	1.001525	0.486464	1.024209	0.490125	0.434285	0.015153	0.52567	-0.237876	0.365621	1.02635
0.192053	0.639979	0.32739	-0.363793	0.427861	0.468361	1.015343	0.485466	1.028768	0.482386	0.432003	0.020659	0.790249	-0.00306	0.924847	1.180586
-0.033131	0.566977	0.208571	-0.422682	0.166862	0.22326	0.883115	0.259983	1.047819	0.455255	0.4438	0.061177	0.669589	-0.088576	0.773538	1.128356
-0.206418	0.646149	0.227093	-0.459867	0.264278	0.336382	0.924594	0.339712	1.005169	0.433664	0.444178	-0.025303	0.652248	-0.131612	0.64907	1.076246
-0.641644	0.407788	0.022687	-0.539674	0.260371	0.335586	0.924594	0.325046	1.088893	0.4525	0.5111	0.102708	0.893994	0.016955	0.972185	1.196355
-0.015898	0.743904	0.293926	-0.38285	0.394526	0.469066	0.964308	0.422269	1.1315	0.536133	0.600166	0.25518	0.574209	-0.259394	0.525034	1.02515
-0.622249	0.322162	-0.001078	-0.557718	0.158452	0.225035	0.872842	0.227044	1.019603	0.339352	0.457404	0.034752	0.673947	-0.174404	0.644671	1.111582
-0.077239	0.664591	0.178832	-0.458976	0.06885	0.072921	0.795353	0.125128	0.991427	0.301711	0.493161	0.094381	0.715096	-0.132049	0.706742	1.198223
-0.43274	0.695096	0.108368	-0.462585	0.234139	0.297232	0.903038	0.251079	0.819085	0.098585	0.347095	-0.159315	0.594831	-0.259496	0.618021	1.14701
0.001024	0.888182	0.321149	-0.36296	0.117294	0.162058	0.822065	0.157072	0.927127	0.208002	0.42365	-0.006702	0.715096	-0.110729	0.800053	1.250947
-0.337607	0.68293	0.065569	-0.425362	0.064856	0.13748	0.834076	0.176013	0.969478	0.269608	0.491138	0.076129	0.77862	-0.068886	0.967035	1.285076
0.399702	1.138553	0.454816	-0.191821	0.210968	0.335586	0.924594	0.291167	1.102991	0.42268	0.623525	0.208718	0.754159	-0.13175	0.857577	1.252166
0.001024	0.612687	0.117748	-0.347238	0.207055	0.335586	0.937544	0.292061	0.996054	0.301727	0.555955	0.057758	0.491531	-0.344587	0.354813	1.097102
0.399702	0.901691	0.530626	-0.191821	0.077127	0.135598	0.804592	0.131637	1.002152	0.271926	0.520008	-0.002339	0.754159	-0.067498	0.857577	1.322587
0.158925	0.743904	0.351774	-0.253206	0.149991	0.204012	0.832271	0.194135	1.175738	0.50403	0.686957	0.213688	0.789228	0.018602	0.778114	1.358224
0.124548	0.777109	0.351774	-0.234026	0.251677	0.379552	0.883115	0.278221	1.047819	0.320313	0.607605	0.064544	0.769627	-0.00248	0.746902	1.323529
0.238572	0.68563	0.351774	-0.252397	0.19454	0.35988	0.859915	0.227044	1.155229	0.404057	0.696836	0.195326	0.645496	-0.066237	0.424352	1.237143
0.335512	0.73134	0.309056	-0.234026	0.340877	0.513809	0.925459	0.342464	1.109401	0.395944	0.720295	0.213688	0.625906	-0.066134	0.514114	1.253858
0.577203	0.751619	0.378958	-0.21097	0.311546	0.493114	0.90218	0.338789	1.002152	0.27455	0.596159	0.044783	0.830453	0.126637	0.831211	1.321937
0.464894	0.569826	0.287811	-0.267573	0.174226	0.357562	0.836755	0.259983	1.058944	0.366266	0.688163	0.23319	0.790249	0.148472	0.742381	1.287034
0.335512	0.536709	0.151087	-0.328972	0.291221	0.514468	0.864315	0.388277	0.933103	0.271926	0.57467	0.088749	0.81381	0.147925	0.878874	1.285413
-0.105256	0.446043	0.127077	-0.309844	0.174226	0.466189	0.862566	0.359901	0.992974	0.328578	0.587127	0.174493	0.792267	0.148734	0.768922	1.251566
-0.317725	0.192238	-0.100814	-0.447219	0.080742	0.356771	0.786093	0.277344	0.947542	0.30971	0.553564	0.173309	0.594831	0.019561	0.556003	1.164889
0.318691	0.39488	0.060555	-0.291535	0.217693	0.535853	0.878942	0.407641	0.92562	0.30971	0.554259	0.195326	0.731511	0.063216	0.715717	1.23531
0.592275	0.53888	0.290365	-0.190347	0.084677	0.400791	0.823857	0.328652	0.947542	0.352801	0.565664	0.173309	0.595951	-0.044848	0.618021	1.165396
0.577203	0.377063	0.230296	-0.21097	-0.012284	0.247816	0.761257	0.24351	1.014951	0.439139	0.621022	0.260214	0.613207	-0.044608	0.564355	1.148708
1.312507	0.69367	0.58235	-0.05422	0.028034	0.270575	0.747482	0.227044	1.14215	0.514516	0.700414	0.297901	0.5672	-0.087311	0.424352	1.132138
0.800147	0.532659	0.372361	-0.133602	0.136782	0.35988	0.801648	0.289369	1.057356	0.414812	0.654278	0.191698	0.688057	-0.001383	0.666256	1.201466
0.352019	0.281347	0.169633	-0.251596	0.129031	0.294114	0.776814	0.224452	1.167508	0.495695	0.765905	0.277183	0.584375	-0.108876	0.369133	1.080211
0.384109	0.275487	0.212108	-0.229347	0.157842	0.270575	0.763962	0.208876	1.209976	0.514516	0.810405	0.339278	0.608654	-0.152029	0.541353	1.114115
0.717699	0.39188	0.405699	-0.169784	0.166369	0.22326	0.708912	0.178527	1.159154	0.457426	0.811916	0.244844	0.583171	-0.173493	0.337921	1.079874
0.495859	0.410034	0.378958	-0.267573	0.093085	0.162058	0.674127	0.09237	1.08096	0.371669	0.764226	0.147759	0.632722	-0.195044	0.471206	1.00955
0.192053	0.242347	0.269649	-0.325648	0.198435	0.250336	0.729043	0.171758	0.927127	0.199616	0.653011	-0.028544	0.67287	-0.130936	0.618021	1.112568
0.045478	0.44007	0.242035	-0.309012	0.235203	0.294114	0.729043	0.189013	0.992974	0.282891	0.67554	-0.005602	0.671785	-0.173654	0.498182	1.026533
0.255341	0.542785	0.299814	-0.289883	0.138104	0.159349	0.648501	0.127594	0.971012	0.266671	0.674911	0.039269	0.491531	-0.323439	0.316497	0.957304
-0.033131	0.503373	0.309056	-0.32813	0.202316	0.186483	0.653141	0.155375	0.950578	0.253011	0.629138	-0.001263	0.456259	-0.387305	0.220426	0.905215
0.399702	0.803659	0.479442	-0.229347	0.157842	0.162942	0.62665	0.139843	1.032202	0.387805	0.72059	0.081952	0.532908	-0.323344	0.405356	0.974109
0.001024	0.54885	0.236279	-0.343903	0.081138	0.093783	0.58643	0.062018	1.054164	0.428178	0.732282	0.146566	0.630484	-0.216487	0.529177	1.043473
0.349583	0.790756	0.405699	-0.265273	0.093085	0.119325	0.589271	0.075196	0.819085	0.164426	0.551784	-0.173288	0.472048	-0.408797	0.200104	0.888321
0.20816	0.967354	0.32739	-0.250016	0.270907	0.362113	0.705217	0.269306	0.87884	0.237305	0.609617	-0.070074	0.365601	-0.495036	-0.03175	0.85421
0.096411	0.894614	0.293926	-0.269941	0.198435	0.248666	0.690611	0.239136	0.924108	0.285539	0.619714	-0.066949	0.441063	-0.431308	0.092179	0.940876
-0.015898	0.873869	0.208571	-0.311531	0.097038	0.227624	0.678721	0.157916	0.906693	0.226287	0.585759	-0.10967	0.625906	-0.259336	0.358461	1.04441
-0.337607	0.932974	0.165771	-0.313248	0.182025	0.315232	0.741863	0.25646	0.931617	0.258222	0.618025	-0.063878	0.783998	-0.087737	0.63081	1.200459
-0.451631	0.812189	0.089458	-0.314118	0.400417	0.581808	0.884856	0.482451	0.977096	0.34456	0.68443	0.004028	0.982096	0.08482	0.997366	1.375056
0.079744	1.172961	0.376203	-0.158741	0.291221	0.426482	0.844587	0.370831	1.087316	0.455496	0.78479	0.17801	1.225509	0.277866	1.290653	1.513653
0.464894	1.590171	0.596233	0.016253	0.353653	0.488274	0.930563	0.49239	1.109401	0.515103	0.80798	0.243057	1.216645	0.236416	1.128403	1.481012
-0.260602	0.899067	0.213968	-0.313248	0.395851	0.358345	1.014507	0.426084	1.237152	0.696518	0.899339	0.46331	1.206795	0.150955	0.895008	1.41284
0.368216	1.157142	0.647548	-0.323234	0.746961	0.35988	1.173316	0.50997	1.462814	0.494863	0.799536	0.392764	1.298918	0.106231	0.985184	1.269596
-0.050679	0.848988	0.477161	-0.57829	0.737078	0.331462	1.204369	0.466821	1.427135	0.363238	0.819964	0.260214	1.155584	-0.109147	0.615866	1.130859
0.2718	1.062814	0.562517	-0.606774	0.781165	0.444118	1.222539	0.544197	1.363615	0.374185	0.840942	0.219773	1.242233	-0.001659	0.764578	1.252749
-0.470852	0.652308	0.290522	-0.742434	0.93904	0.643252	1.340285	0.709816	1.121977	0.137865	0.617333	-0.059868	1.431312	0.147925	1.207239	1.425287
0.480526	1.224138	0.631299	-0.457863	1.050607	0.818491	1.545574	0.803326	1.284869	0.42543	0.788935	0.330266	1.527629	0.257826	1.297409	1.622315
-0.43274	0.636925	0.202941	-0.631177	0.964922	0.657381	1.472027	0.692992	1.14215	0.285684	0.757434	0.284781	1.255518	0.107826	0.921335	1.594502
0.607053	1.219153	0.640619	-0.347171	1.106693	0.725906	1.512846	0.709807	1.094865	0.355427	0.746611	0.243057	1.219147	0.020819	1.205012	1.777083
-0.337607	0.557216	0.272531	-0.524352	1.201834	0.812365	1.565523	0.750614	1.147093	0.403841	0.678254	0.137291	1.365026	0.128486	1.787982	2.14502
-0.050679	0.877288	0.465283	-0.430765	1.091973	0.632742	1.485368	0.552141	1.102991	0.300615	0.643189	0.074324	1.52992	0.301257	2.454158	2.594885
-0.22416	0.61519	0.341128	-0.508013	1.124217	0.611909	1.461078	0.530807	1.198021	0.417535	0.833421	0.421547	1.401043	0.194439	2.427709	2.739005
-0.490305	0.429378	0.193518	-0.544908	1.029513	0.5688	1.32068	0.444381	1.066366	0.371669	0.797381	0.342686	1.299875	0.129561	2.38494	2.63237
-0.584435	0.183159	0.053121	-0.62394	0.771624	0.389963	1.13317	0.276804	1.06472	0.501643	0.698368	0.203587	1.34485	0.260486	2.70008	2.594011
-0.716627	0.115158	0.053121	-0.608824	0.878063	0.596893	1.118541	0.368905	1.315238	0.955613	0.788413	0.331534	1.06252	0.021422	2.25461	2.295228
-0.546764	0.055049	-0.016078	-0.594716	0.706184	0.486057	1.004861	0.302538	1.634422	1.400081	0.751909	0.231505	0.93247	-0.06555	2.52809	2.293784
-0.337607	0.242814	0.133904	-0.460766	0.627476	0.482965	0.993556	0.371543	1.827158	1.718782	0.770531	0.195863	1.114358	0.195225	2.984241	2.55928
-0.033131	0.384289	0.199935	-0.368069	0.549038	0.548069	1.019461	0.444381	2.213911	2.264786	0.950153	0.395794	0.914745	0.108643	2.886942	2.582506
-0.164703	0.332066	0.190998	-0.294068	0.481928	0.526599	0.979781	0.465506	2.170338	2.236779	0.959242	0.44787	1.181059	0.392632	3.345208	2.890743
0.079744	0.369044	0.208823	-0.198823	0.311546	0.364991	0.898709	0.405135	2.230428	2.165204	1.062647	0.643009	1.283523	0.545877	3.547242	3.104386
0.045478	0.41614	0.190998	-0.143411	0.289776	0.389963	0.850539	0.401853	1.805212	1.618874	0.90315	0.424188	1.199264	0.459811	3.263869	3.048953
-0.015898	0.249914	0.175823	-0.083907	0.374556	0.591106	0.879798	0.499048	1.690203	1.343554	0.950417	0.551614	1.215791	0.52732	3.03358	2.989607
0.464894	0.473077	0.332362	0.089056	0.339405	0.611136	0.8394	0.484899	1.430515	1.034859	0.849884	0.439385	1.037685	0.350171	2.727768	2.71438
0.741367	0.70222	0.556702	0.302924	0.41707	0.743474	0.850539	0.568972	1.377165	0.961295	0.884363	0.548995	1.118907	0.503611	2.604503	2.612353
0.741367	0.690739	0.581521	0.361662	0.335652	0.653606	0.775024	0.450469	1.31899	0.924028	0.931466	0.630585	1.023473	0.392915	2.361321	2.360646
1.162828	0.936508	0.741009	0.461185	0.355989	0.7449	0.714422	0.414401	1.180616	0.696372	0.818588	0.545023	0.90414	0.326825	1.948928	2.077849
0.546162	0.533417	0.447855	0.302924	0.182025	0.563123	0.588328	0.230824	1.063677	0.591755	0.763355	0.498922	0.88932	0.347353	1.782089	1.924757
1.09176	0.725299	0.657451	0.423385	0.193614	0.586354	0.541119	0.192978	0.8614	0.359644	0.664434	0.409561	0.871602	0.368257	1.505792	1.704523
0.756506	0.401599	0.48252	0.227717	0.394526	0.387227	0.373981	-0.089139	0.71764	0.044731	0.588457	0.335303	1.009109	0.366504	1.381979	1.558922
0.771347	0.322041	0.491734	0.098387	0.524534	0.364045	0.405969	-0.17124	0.639899	-0.132395	0.548161	0.283529	0.828462	0.170063	0.961058	1.344485
0.607053	0.180309	0.245474	0.006851	0.384198	0.498616	0.560887	-0.010328	0.551091	-0.087824	0.548473	0.262696	0.827454	0.170063	0.946112	1.360995
0.239481	0.195685	0.230707	-0.009513	0.275912	0.588774	0.564704	0.136378	0.571141	-0.030495	0.569877	0.328992	0.930469	0.34248	1.211003	1.536558
0.033956	0.096875	0.083985	0.00741	0.160835	0.568019	0.519464	0.11989	0.403824	-0.217522	0.42365	0.116322	0.890271	0.343643	1.107603	1.608896
0.319355	0.416064	0.214002	0.140616	0.075408	0.477177	0.458879	0.071962	0.465374	-0.071623	0.446397	0.181474	0.853906	0.257206	1.16498	1.627034
0.20816	0.361453	0.147381	0.118224	0.078134	0.591863	0.438316	0.117557	0.441304	-0.074085	0.469818	0.265156	0.775696	0.25752	1.144292	1.681163
0.001024	0.322041	0.147381	0.117109	0.069371	0.571085	0.37807	0.083879	0.378567	-0.12799	0.446033	0.201256	0.958778	0.384996	1.46797	1.750054
0.128836	0.503373	0.31102	0.214243	0.025676	0.569572	0.340289	0.066679	0.231911	-0.292772	0.334094	-0.014887	0.760096	0.191667	1.170384	1.608494
0.144601	0.452004	0.352245	0.234564	-0.019087	0.484531	0.257232	-0.068048	0.274488	-0.269299	0.35486	0.030195	0.630102	0.039616	0.992898	1.447337
0.144601	0.367288	0.335385	0.214243	0.120415	0.573282	0.297736	0.04329	0.358517	-0.191609	0.389094	0.027071	0.625046	-0.00248	0.821644	1.35981
0.444716	0.627605	0.582606	0.331346	0.060561	0.483753	0.234141	-0.07097	0.379863	-0.114049	0.523175	0.220972	0.726936	0.039616	1.013278	1.375056
0.500771	0.51229	0.533012	0.275026	-0.018034	0.414777	0.182106	-0.133294	0.253193	-0.276259	0.422897	0.045868	0.586281	-0.067011	0.657481	1.235586
0.269638	0.485316	0.541381	0.254365	-0.022839	0.328871	0.147642	-0.185552	0.299484	-0.224585	0.387901	-0.036891	0.507777	-0.173913	0.534406	1.165642
0.500771	0.693392	0.631829	0.294341	-0.030384	0.394324	0.18411	-0.119113	0.28174	-0.19166	0.373144	-0.031015	0.629107	-0.04629	0.843191	1.268018
0.190159	0.615187	0.508381	0.215726	-0.054106	0.304079	0.171613	-0.070234	0.33971	-0.120765	0.421749	0.026017	0.700709	0.019384	0.807005	1.3394
-0.028435	0.457954	0.425704	0.136414	0.21118	0.619767	0.31498	0.185533	0.28293	-0.125368	0.374831	-0.076081	0.662839	0.019007	0.771216	1.321604
0.033956	0.612687	0.367142	0.154627	-0.014237	0.39261	0.234141	0.061229	0.552484	0.264039	0.61059	0.334053	0.739643	0.083777	0.832912	1.373996
0.254703	0.68563	0.524795	0.214243	0.009485	0.459973	0.24666	0.077604	0.512295	0.221078	0.588784	0.289732	0.878941	0.25588	1.069786	1.477756
0.033956	0.554904	0.400203	0.154627	0.240422	0.640662	0.373947	0.286647	0.49616	0.150592	0.463586	0.100653	0.599261	-0.023335	0.565135	1.251868
0.049972	0.67314	0.524795	0.174517	0.00282	0.478034	0.314145	0.148894	0.72762	0.482386	0.654897	0.445095	0.557016	-0.0445	0.481576	1.269898
-0.360377	0.424341	0.292427	0.056191	0.081889	0.503583	0.342216	0.19329	0.625433	0.320313	0.553212	0.298172	0.739643	0.191371	0.822786	1.425287
0.065696	0.536709	0.467081	0.155181	0.061882	0.525819	0.379971	0.192441	0.602466	0.317667	0.542141	0.296984	0.714057	0.171121	0.719178	1.408966
0.017641	0.469818	0.301112	0.114198	0.216775	0.706823	0.443907	0.304923	0.562096	0.239258	0.451746	0.191545	0.717151	0.191956	0.884376	1.406623
0.745308	0.921069	0.673686	0.311078	0.202166	0.748945	0.479016	0.358061	0.559375	0.315017	0.520729	0.296984	0.636018	0.128068	0.648141	1.285413
-0.206418	0.248634	0.175823	0.034917	-0.009512	0.500311	0.376154	0.194978	0.619795	0.374366	0.532491	0.339021	0.576478	0.085007	0.499318	1.215577
0.239481	0.55748	0.442473	0.174517	0.085629	0.591863	0.40328	0.273804	0.622624	0.428399	0.552859	0.388493	0.757164	0.257206	0.786965	1.318035
-0.283617	0.141625	0.094883	-0.021004	0.014311	0.568019	0.376154	0.210586	0.687358	0.531255	0.653649	0.542346	0.657646	0.149711	0.582141	1.18029
-0.094108	0.208991	0.285433	0.058054	0.149377	0.682543	0.440194	0.306743	0.625433	0.47446	0.597193	0.410812	0.693473	0.171838	0.473028	1.180878
-0.015898	0.400796	0.259427	0.074891	0.353743	0.861603	0.540453	0.505017	0.587741	0.403841	0.528499	0.281717	0.430595	-0.108804	0.12137	1.009038
0.017641	0.337995	0.276811	0.096059	0.202166	0.725906	0.498773	0.393908	0.571451	0.397977	0.536532	0.287347	0.871602	0.367577	0.827867	1.336921
-0.155052	0.074612	0.169416	0.016916	0.08685	0.565616	0.443324	0.299963	0.640509	0.515134	0.580284	0.311959	0.871602	0.345776	0.858702	1.302471
-0.171868	0.169786	0.202295	0.132961	0.123233	0.60956	0.491197	0.367131	0.791499	0.643937	0.669888	0.487991	0.830453	0.302812	0.771216	1.285413
-0.155052	0.169786	0.276811	0.113594	0.231314	0.768733	0.582117	0.448322	0.918008	0.783586	0.761856	0.616417	0.689157	0.216636	0.508051	1.199655
-0.283617	0.22038	0.268142	0.151748	0.223887	0.7449	0.581193	0.432637	0.921068	0.786466	0.783897	0.662819	0.610947	0.15131	0.446619	1.112803
0.554279	0.771325	0.640564	0.368011	0.211183	0.701439	0.542065	0.366239	0.949063	0.80369	0.759334	0.625778	0.793263	0.302812	0.67409	1.197923
0.065696	0.428089	0.318341	0.153497	0.319231	0.815548	0.583039	0.412331	0.875843	0.676653	0.728687	0.637544	0.748986	0.260486	0.415943	1.112084
0.298662	0.545091	0.450789	0.233589	0.167215	0.633511	0.478491	0.266022	0.788609	0.589044	0.639233	0.48297	0.951015	0.499092	0.761301	1.213989
-0.29293	0.242347	0.171446	0.05866	0.090635	0.544908	0.416017	0.199139	0.749319	0.534326	0.592928	0.443058	0.673947	0.215973	0.372764	0.990022
0.017751	0.32028	0.286699	0.097816	0.174681	0.657381	0.483277	0.328652	0.852522	0.698589	0.684104	0.617772	0.812832	0.368257	0.577481	1.109964
-0.215954	0.461082	0.278232	0.115966	0.198479	0.679756	0.482328	0.346985	0.746493	0.57813	0.572159	0.461803	0.931382	0.476787	0.817668	1.196027
-0.309346	0.332101	0.236931	0.115384	0.170955	0.746288	0.519464	0.381923	0.769697	0.6659	0.560678	0.44184	0.793263	0.345776	0.669273	1.127226
-0.436701	0.298859	0.154101	0.056191	0.286204	0.838587	0.559444	0.462096	0.808932	0.704233	0.596159	0.480424	0.593703	0.194224	0.346462	1.024712
0.204779	0.532659	0.393394	0.175053	0.08305	0.564795	0.46579	0.301683	0.747909	0.602797	0.551421	0.393384	0.673947	0.258978	0.529967	1.128356
-0.436701	0.259653	0.145358	0.074891	0.198479	0.657381	0.493114	0.365343	0.791499	0.643937	0.551055	0.394592	0.555875	0.107361	0.293502	1.008092
-0.012754	0.493861	0.31102	0.135856	0.255137	0.702146	0.505815	0.34877	0.743646	0.545321	0.542496	0.363734	0.532908	0.086103	0.266842	1.043272
-0.044406	0.434085	0.235203	0.114198	0.225914	0.615626	0.444291	0.263454	0.8322	0.635605	0.620044	0.497609	0.552402	0.172691	0.328063	1.094764
-0.734436	0.124937	0.145358	0.016253	0.235006	0.658106	0.483277	0.297359	0.833674	0.641163	0.607605	0.477855	0.734622	0.302515	0.560643	1.16382
-0.547896	0.181037	0.118847	0.015581	0.278935	0.725906	0.484223	0.296484	0.877344	0.663112	0.618368	0.502828	0.711954	0.303101	0.446619	1.181448
-0.68049	0.057942	0.097371	-0.00041	0.299077	0.747636	0.45983	0.295606	0.83072	0.572659	0.596159	0.501532	0.681258	0.279216	0.572784	1.162381
-0.846185	-0.048548	-0.012485	-0.022366	0.183591	0.610353	0.39462	0.216465	0.804503	0.6026	0.66506	0.562007	0.481616	0.042084	0.137318	0.973577
-0.547896	0.108136	0.038205	0.017573	0.315598	0.814304	0.460778	0.313011	0.849522	0.651931	0.653011	0.609556	0.580917	0.193289	0.368508	1.059464
-0.678318	-0.103777	-0.077971	-0.080939	0.346597	0.861603	0.463597	0.343374	0.720492	0.463383	0.495628	0.39217	0.501015	0.150367	0.224646	1.007888
-0.395927	0.236554	0.16061	-0.003062	0.238684	0.725906	0.385877	0.213125	0.609358	0.327501	0.430433	0.30053	0.382335	-0.022538	0.076617	0.921868
-0.88483	-0.148235	-0.077971	-0.138727	0.238684	0.702843	0.372278	0.213965	0.544546	0.284096	0.432003	0.299354	0.361732	-0.000824	-0.064737	0.870616
-0.716147	-0.185373	-0.024293	-0.114423	0.170955	0.633511	0.345053	0.182651	0.478561	0.240743	0.376884	0.234909	0.583087	0.21472	0.342297	1.007468
-0.436701	-0.135901	-0.009389	-0.115829	0.138256	0.658106	0.347032	0.148894	0.539199	0.278946	0.356487	0.296984	0.46571	0.106637	0.311857	0.973003
-0.605502	-0.196098	-0.056813	-0.171931	0.141977	0.658822	0.321805	0.131637	0.558007	0.317083	0.357285	0.339021	0.404127	0.063714	0.171478	0.938926
-0.605502	-0.278607	-0.213663	-0.191821	0.109352	0.592611	0.338346	0.096388	0.494836	0.292828	0.380044	0.318012	0.307502	-0.087363	0.04987	0.835852
-1.124181	-0.371423	-0.246124	-0.288262	0.196746	0.683216	0.300578	0.127594	0.472033	0.24958	0.347489	0.293384	0.425855	0.020335	0.285502	0.904337
-0.864626	-0.392164	-0.168783	-0.227108	0.125654	0.591863	0.261846	0.064364	0.38753	0.16828	0.269063	0.141717	0.471347	0.062448	0.450968	0.937606
-0.755063	-0.310359	-0.13644	-0.227108	0.089356	0.571085	0.26385	0.030812	0.473349	0.235646	0.334504	0.18713	0.370281	-0.023335	0.277341	0.852197
-0.505281	-0.288392	0.027705	-0.147274	0.073095	0.482168	0.188539	-0.03538	0.519005	0.284096	0.366682	0.231505	0.346121	-0.08749	0.080233	0.784146
-0.629243	-0.239484	0.010555	-0.187487	0.124075	0.507452	0.203112	0.01138	0.563448	0.330098	0.398522	0.254868	0.469117	-0.002129	0.368508	0.817791
-0.882778	-0.463823	-0.246124	-0.287463	0.156721	0.572559	0.278396	0.09318	0.590435	0.32381	0.351491	0.171467	0.505556	0.0411	0.372764	0.834758
-0.461896	-0.201476	0.066862	-0.187487	0.213144	0.594795	0.264845	0.126775	0.632364	0.403234	0.407943	0.236031	0.331725	-0.130849	0.16004	0.680956
-0.901237	-0.522458	-0.287731	-0.3837	0.220393	0.664198	0.307404	0.189013	0.649838	0.438908	0.443037	0.298172	0.309999	-0.152219	0.103245	0.680867
-0.29293	-0.038525	0.12336	-0.168389	0.049398	0.460784	0.202098	0.044862	0.775351	0.605378	0.555284	0.515954	0.373819	-0.088434	0.273201	0.748507
-0.716147	-0.364472	-0.083527	-0.286671	0.187607	0.641976	0.281336	0.171758	0.629607	0.490575	0.442263	0.34749	0.270199	-0.195044	0.042699	0.664001
-0.827342	-0.261458	-0.033122	-0.266799	0.005714	0.481361	0.228189	0.04642	0.517673	0.308375	0.312118	0.186011	0.545394	0.105085	0.516417	0.919621
-1.07137	-0.461591	-0.175974	-0.309844	-0.037985	0.41305	0.187513	0.000305	0.559375	0.411817	0.379268	0.29579	0.247059	-0.17357	-0.037698	0.71533
-0.68049	-0.477064	-0.089302	-0.265273	0.085629	0.637918	0.26385	0.1144	0.687358	0.542588	0.457762	0.404496	0.385992	-0.044848	0.141037	0.817931
-1.031756	-0.706901	-0.283002	-0.347238	0.041886	0.570333	0.251287	0.066679	0.603855	0.458033	0.401647	0.29579	0.504433	0.062651	0.376981	0.920638
-0.827342	-0.43436	-0.027221	-0.192569	0.113053	0.61774	0.265838	0.128409	0.521652	0.294358	0.299431	0.101699	0.588369	0.083063	0.577481	0.937399
-0.678318	-0.369689	-0.00691	-0.157204	0.105636	0.571827	0.276417	0.080769	0.564795	0.313533	0.366277	0.120669	0.607725	0.104039	0.520972	0.954561
-0.678318	-0.246112	0.142854	-0.156447	0.118204	0.571827	0.288988	0.047966	0.544546	0.305792	0.366682	0.074324	0.627092	0.061324	0.582141	0.971954
-0.958495	-0.428937	0.035087	-0.214836	0.062976	0.45663	0.235692	-0.032453	0.520331	0.216553	0.367084	0.048021	0.787849	0.230584	0.985922	1.107872
-0.249182	0.054687	0.325457	-0.019672	0.114458	0.503583	0.278396	0.012149	0.691681	0.425563	0.544573	0.330266	0.431638	-0.174185	0.372764	0.800542
-0.978222	-0.536025	-0.091142	-0.274878	0.054336	0.391738	0.22919	-0.070234	0.60799	0.343994	0.47727	0.17801	0.352196	-0.216766	0.224646	0.749278
-0.249182	-0.080704	0.226457	-0.116543	-0.121114	0.209724	0.125901	-0.229649	0.60799	0.281522	0.443037	0.11522	0.570066	0.038872	0.485924	0.885187
-0.753037	-0.526212	-0.138242	-0.274036	0.030513	0.389061	0.19058	-0.084371	0.562096	0.233093	0.432773	0.068951	0.294439	-0.238034	0.133557	0.680956
-0.678318	-0.361129	-0.021538	-0.233228	-0.009512	0.411284	0.165529	-0.133294	0.497479	0.122646	0.378483	0.000871	0.138245	-0.365836	-0.161953	0.578959
-0.360377	-0.322465	-0.021538	-0.232437	-0.054106	0.348317	0.09362	-0.201106	0.513647	0.177188	0.391034	0.041492	0.241734	-0.259496	0.005227	0.646583
-0.155052	-0.113601	0.070963	-0.173399	0.067935	0.484531	0.162125	-0.076212	0.578147	0.287621	0.456681	0.217356	0.223804	-0.280766	-0.081532	0.612697
-0.419447	-0.41512	-0.092527	-0.248465	-0.035223	0.416464	0.086316	-0.188334	0.533769	0.241843	0.401647	0.152476	0.399876	-0.131896	0.238786	0.731347
-0.436701	-0.332892	-0.083527	-0.266032	-0.106164	0.346508	0.061414	-0.171414	0.612634	0.315017	0.437898	0.253908	0.248924	-0.196056	0.084082	0.629336
-0.276806	-0.353896	-0.080462	-0.282823	-0.123095	0.330609	0.014799	-0.254459	0.488139	0.285012	0.392913	0.128153	-0.006537	-0.429346	-0.291575	0.46022
-0.68049	-0.49445	-0.242321	-0.358909	-0.135364	0.353507	0.028252	-0.19117	0.421272	0.198727	0.339611	0.080799	0.225025	-0.216919	0.03536	0.646295
-0.588065	-0.456378	-0.251309	-0.39853	-0.237763	0.285643	0.014799	-0.238292	0.438609	0.193605	0.374266	0.162394	0.148573	-0.301993	-0.02488	0.544719
-1.085373	-0.667022	-0.389538	-0.417526	-0.100808	0.400016	0.041697	-0.15953	0.378567	0.220279	0.36076	0.103875	0.345685	-0.153357	0.238786	0.645964
-0.920007	-0.499599	-0.352563	-0.43996	-0.297409	0.246957	-0.018248	-0.321024	0.502685	0.341904	0.450243	0.25263	0.347898	-0.132209	0.290703	0.595091
-1.471005	-0.777313	-0.569112	-0.531291	-0.492994	0.000302	-0.148452	-0.462235	0.398599	0.217706	0.352034	0.096789	0.284828	-0.238214	0.095702	0.527707
-1.471005	-0.744526	-0.569112	-0.532192	-0.426453	0.090865	-0.122611	-0.398418	0.488139	0.317083	0.350182	0.12463	0.285993	-0.217101	0.178393	0.544253
-1.37976	-0.669339	-0.61072	-0.512355	-0.446021	0.090865	-0.110236	-0.38108	0.469385	0.308375	0.295074	0.03589	0.144763	-0.323258	-0.165159	0.443326
-0.461896	-0.194375	-0.168783	-0.281335	-0.422572	0.158426	-0.06069	-0.316482	0.412766	0.28278	0.248429	-0.044024	0.263313	-0.216701	0.03536	0.527595
-0.882778	-0.317167	-0.324999	-0.340688	-0.348071	0.288287	-0.013189	-0.218012	0.350812	0.159673	0.214283	-0.085787	0.355741	-0.109607	0.133557	0.612386
-0.353394	-0.089341	0.019153	-0.20379	-0.387284	0.221446	-0.051507	-0.298398	0.373506	0.164554	0.221636	-0.057899	0.321983	-0.152839	0.15221	0.578359
-0.478501	-0.114401	-0.112892	-0.187487	-0.261942	0.355969	-0.013189	-0.186242	0.439298	0.256708	0.276125	0.030195	0.265689	-0.110109	0.20446	0.662907
-0.755063	-0.27436	-0.283622	-0.246195	-0.257461	0.395999	-0.006093	-0.180815	0.610721	0.492585	0.432389	0.290955	0.242953	-0.088172	0.065518	0.714712
-1.450822	-0.541225	-0.546355	-0.38285	-0.276725	0.414777	0.015593	-0.160552	0.60799	0.487303	0.487943	0.356234	0.419086	0.040076	0.329567	0.868091
-0.646032	-0.053624	-0.13644	-0.130836	-0.253103	0.459973	0.004206	-0.129193	0.6672	0.583589	0.622292	0.571703	0.480982	0.061077	0.411591	0.851188
-1.15792	-0.498419	-0.430992	-0.306561	-0.272844	0.415625	-0.043414	-0.194499	0.560738	0.476703	0.555284	0.42023	0.591441	0.234592	0.629009	1.039967
-0.322089	-0.065491	-0.095291	-0.09125	-0.241577	0.440238	-0.067179	-0.163851	0.606617	0.484658	0.543198	0.445095	0.514245	0.105329	0.450968	0.920245
-0.385836	-0.202995	-0.172133	-0.095233	-0.0526	0.687049	0.051039	0.012149	0.543217	0.465367	0.498623	0.336548	0.350997	-0.065798	0.110622	0.784247
-0.1087	-0.083364	0.060076	-0.014634	-0.265125	0.440238	-0.063917	-0.130547	0.6351	0.616089	0.508947	0.361257	0.628103	0.301257	0.608052	1.05823
-0.461896	-0.300341	-0.121762	-0.05749	-0.241577	0.462377	-0.025608	-0.048105	0.83072	0.888048	0.57571	0.470007	0.330508	-0.022379	0.083807	0.835852
-0.4954	-0.263029	-0.130679	-0.019672	-0.202127	0.528879	-0.027745	-0.028871	0.982036	1.066883	0.710647	0.66381	0.530362	0.150155	0.398949	0.955591
-0.716147	-0.412651	-0.222781	-0.060943	-0.206727	0.464693	-0.038022	-0.03101	0.81621	0.823983	0.507838	0.340248	0.603558	0.215973	0.381157	0.973577
0.032582	-0.157311	-0.006777	0.097237	-0.143917	0.553923	0.025138	0.051016	0.906693	0.922021	0.562151	0.386012	0.501015	0.08623	0.15549	0.922606
-0.588065	-0.514376	-0.269425	-0.020335	-0.221857	0.506698	0.021991	0.054752	0.975583	1.037415	0.583634	0.388493	0.519278	0.108222	0.186139	0.957154
-0.309346	-0.305939	-0.148655	0.055556	-0.079787	0.662912	0.096724	0.15366	0.958077	1.026311	0.61592	0.456767	0.636018	0.238657	0.370592	1.060583
-0.566009	-0.315681	-0.217815	0.03289	-0.083513	0.617045	0.106104	0.188283	1.003663	1.136536	0.706066	0.543687	0.67287	0.304679	0.436271	1.147267
0.081129	-0.010455	0.138748	0.231028	-0.000536	0.729745	0.181098	0.252843	1.008166	1.151143	0.727088	0.548995	0.593703	0.28302	0.374468	1.112568
-0.301298	-0.012397	0.002209	0.168754	0.020715	0.748945	0.228189	0.323381	1.012621	1.137109	0.715256	0.505402	0.553568	0.23927	0.343606	1.077453
0.144601	0.224853	0.252555	0.288785	0.067935	0.795546	0.240734	0.305924	1.101317	1.15987	0.748793	0.595269	0.475699	0.13025	0.247518	0.973577
-0.094108	0.092566	0.067996	0.208255	0.064255	0.840311	0.28036	0.320833	1.099782	1.199561	0.748468	0.596604	0.615434	0.370121	0.454981	1.076246
0.430001	0.575504	0.45028	0.40609	-0.109988	0.636488	0.176003	0.175631	1.077601	1.154055	0.737611	0.595269	0.875336	0.631735	0.832912	1.229924
-0.206418	0.230227	0.109915	0.266673	-0.057925	0.791193	0.236708	0.260975	1.272759	1.412502	0.896109	0.90696	0.593703	0.349252	0.278247	0.990231
0.049972	0.40617	0.26116	0.347641	0.016985	0.83739	0.251287	0.325062	1.182232	1.344046	0.873427	0.885852	0.709817	0.371469	0.274488	0.886988
-0.454259	-0.018257	-0.105455	0.212696	0.061882	0.928455	0.287003	0.372415	1.003663	1.054178	0.737611	0.640288	0.689157	0.283445	0.094269	0.784041
-0.343065	0.206176	0.127731	0.313252	0.173074	1.132657	0.414949	0.500113	0.933103	0.927479	0.749436	0.638919	0.729396	0.370405	0.243812	0.938006
-0.771955	0.06279	-0.039789	0.135856	0.167634	1.133744	0.442984	0.496277	0.927127	0.871421	0.694591	0.612318	0.811846	0.47914	0.477322	1.023539
0.144601	0.585998	0.425704	0.390699	0.107781	1.019933	0.389721	0.43171	0.773953	0.757271	0.606217	0.433146	0.833378	0.544232	0.595891	1.126331
-0.958495	-0.191666	-0.16173	0.020125	0.051705	0.930009	0.391621	0.380107	0.794368	0.798965	0.630148	0.475262	0.854846	0.631245	0.683612	1.160505
-0.028435	0.367512	0.318341	0.254365	-0.035223	0.839171	0.325752	0.282557	0.775361	0.721032	0.518165	0.322808	1.058152	0.824612	1.058664	1.313596
-0.454259	-0.024126	0.044128	0.135291	-0.174027	0.637918	0.26385	0.16617	0.881816	0.877073	0.585759	0.452928	0.943333	0.669705	1.016651	1.260998
-0.199782	0.051642	0.269719	0.196912	-0.107061	0.684532	0.278396	0.182651	1.011824	1.140179	0.799536	0.778774	0.644444	0.389029	0.612764	1.073787
-0.512596	-0.145631	0.062065	0.077944	0.113151	0.889089	0.384657	0.390167	0.756292	0.762382	0.47309	0.234909	0.822247	0.561969	0.909934	1.245347
0.081129	0.304691	0.458703	0.350734	0.172737	0.888627	0.435879	0.407641	0.842409	0.846359	0.540698	0.298172	0.840825	0.518272	0.858702	1.228469
-0.808812	-0.391604	-0.063457	0.018222	-0.031488	0.662254	0.331561	0.199139	1.005509	1.083345	0.744504	0.616245	0.421079	0.107524	0.216815	0.972388
-0.4954	-0.046483	0.285433	0.175582	0.048028	0.685175	0.291938	0.199139	0.791499	0.846298	0.598538	0.356234	0.862079	0.495024	1.089552	1.261812
-0.4954	-0.242976	0.085969	0.116542	0.174841	0.776077	0.318035	0.279095	0.935195	0.98215	0.745576	0.5896	0.542088	0.128486	0.481576	1.023037
-0.309346	-0.015759	0.276811	0.17662	0.048028	0.619767	0.216654	0.148894	0.849522	0.86008	0.632737	0.46331	0.606696	0.256558	0.67409	1.090056
-0.698167	-0.382298	0.053121	0.039997	0.107781	0.66356	0.230188	0.213965	0.911827	0.943419	0.722309	0.638537	0.587329	0.191956	0.617439	1.038859
-1.085373	-0.478297	-0.036208	-0.017095	-0.022839	0.594077	0.177029	0.119115	0.71764	0.726787	0.587797	0.445095	0.601426	0.214985	0.631231	1.057161
-1.288282	-0.757843	-0.292342	-0.114423	-0.015349	0.61774	0.166553	0.133231	0.629607	0.591313	0.521792	0.378428	0.40652	0.041939	0.328063	0.936971
-0.901237	-0.557418	-0.143336	0.001503	-0.074936	0.595504	0.167572	0.101099	0.46211	0.408443	0.330297	0.057406	0.740623	0.366504	0.83792	1.193971
-0.68049	-0.478297	0.014387	0.098951	0.069886	0.732114	0.194616	0.194978	0.547188	0.510969	0.486835	0.320422	0.502163	0.128874	0.393443	0.971954
-0.385836	-0.246864	0.268142	0.1006	-0.045642	0.592611	0.186483	0.054752	0.589091	0.501266	0.630809	0.44377	0.619788	0.236416	0.626673	1.090677
-0.512596	-0.382298	0.166904	0.041782	0.235006	0.839171	0.300578	0.231298	0.590435	0.498598	0.739842	0.559257	0.665858	0.277511	0.730599	1.158114
-0.827342	-0.487883	0.166904	0.079688	0.223887	0.859864	0.324771	0.199139	0.698783	0.564365	0.839255	0.675462	0.734622	0.367227	0.635751	1.247937
-0.309346	-0.022426	0.491068	0.273701	0.277002	0.925674	0.361608	0.20078	0.742214	0.580861	0.895307	0.789405	0.81381	0.410459	0.728576	1.352784
-0.326056	0.094241	0.48252	0.350313	0.321149	0.947677	0.349972	0.199139	0.613431	0.403234	0.794777	0.566091	1.051015	0.672012	1.086209	1.579482
0.140043	0.299538	0.607576	0.449235	0.231314	0.791193	0.277408	0.079983	0.632364	0.378819	0.795076	0.587139	0.931382	0.585355	0.935959	1.528464
-0.028435	0.52008	0.5987	0.446318	0.383345	1.041565	0.332516	0.175169	0.714768	0.474447	0.897398	0.762393	1.015032	0.71351	1.126153	1.596463
-0.028435	0.552423	0.590134	0.504097	0.16346	0.789862	0.205129	-0.001931	0.522968	0.202476	0.671962	0.434405	0.914483	0.627068	0.956626	1.544512
-0.077239	0.795684	0.639945	0.542111	0.258804	0.994492	0.22261	0.058844	0.560738	0.317083	0.797101	0.651593	0.997883	0.669705	1.058664	1.490229
0.081129	0.76882	0.632132	0.523644	0.158319	0.879957	0.135163	-0.007264	0.407688	0.158192	0.665677	0.422859	0.898467	0.626515	0.853567	1.402363
-0.512596	0.381141	0.314687	0.40609	0.046735	0.765262	0.059338	-0.135391	0.429123	0.144198	0.59787	0.404496	1.021329	0.732193	1.128122	1.43324
-0.512596	0.457221	0.398761	0.465427	-0.085555	0.631175	-0.026674	-0.251103	0.406405	0.163242	0.609943	0.470007	0.763893	0.473715	0.664419	1.210478
-0.605502	0.318321	0.290365	0.387038	0.033182	0.723856	-0.011076	-0.157344	0.33971	0.112649	0.534546	0.375854	0.78053	0.453684	0.586763	1.159844
-0.152989	0.538068	0.591008	0.506547	0.036914	0.769398	-0.011076	-0.140403	0.214177	-0.049303	0.388301	0.14062	0.586281	0.23613	0.429416	1.039422
-0.790592	0.261956	0.232996	0.387901	-0.006687	0.769398	0.000288	-0.155188	0.231911	-0.016081	0.412647	0.200081	0.529291	0.170607	0.364213	1.00456
-0.385836	0.425382	0.416122	0.426835	-0.046511	0.656646	-0.025608	-0.17071	0.231911	-0.056486	0.379657	0.176844	0.329282	-0.001256	0.019533	0.885776
-0.385836	0.349942	0.374281	0.446707	-0.106164	0.545714	-0.050432	-0.235571	0.216507	-0.106533	0.298999	0.008151	0.413497	-0.001965	0.242915	0.936295
0.12573	0.632956	0.599214	0.564996	-0.121544	0.497753	-0.054756	-0.26535	0.28174	0.019931	0.409549	0.11522	0.27272	-0.130699	-0.014241	0.834601
-0.461896	0.299707	0.374281	0.428013	-0.070208	0.457481	-0.051507	-0.252436	0.472033	0.165763	0.509312	0.288503	0.349791	-0.130635	0.019533	0.869178
-0.478501	0.343673	0.44068	0.407773	-0.061757	0.501144	-0.027745	-0.251103	0.475966	0.189871	0.507838	0.203587	0.449802	-0.045117	0.194257	0.971731
-0.901237	0.154275	0.197081	0.308727	-0.005684	0.590339	0.044784	-0.201785	0.520331	0.235646	0.551055	0.247852	0.543199	-0.001659	0.232438	1.04125
-0.68049	0.218044	0.323549	0.349451	-0.025669	0.523422	0.007424	-0.266647	0.564795	0.243287	0.56105	0.226883	0.424674	-0.066237	0.110622	1.006571
-0.570926	0.130382	0.290365	0.330476	0.065634	0.615626	0.021991	-0.204538	0.478561	0.132592	0.539963	0.201256	0.52269	-0.001659	0.205726	1.041493
-0.10639	0.595394	0.624113	0.486745	-0.001871	0.501967	-0.003951	-0.2673	0.522968	0.243287	0.628453	0.334053	0.506671	-0.023478	0.255061	1.057705
-0.547896	0.154275	0.230296	0.269857	0.213144	0.771961	0.110217	-0.043708	0.652632	0.438908	0.717852	0.489609	0.499859	0.063714	0.266842	1.110245
0.254703	0.765835	0.724222	0.525701	-0.009512	0.635019	0.069713	-0.167925	0.506561	0.280246	0.604427	0.296984	0.6371	0.215243	0.420091	1.212982
-0.454259	0.236303	0.239317	0.308727	0.154596	0.790533	0.166553	0.04642	0.656783	0.495927	0.694261	0.430609	0.836231	0.410067	0.745255	1.332999
-0.171868	0.590431	0.381209	0.406521	-0.009512	0.654381	0.114435	-0.04954	0.76395	0.649477	0.818021	0.71746	1.11471	0.692795	1.157148	1.505147
-0.188988	0.584536	0.339053	0.405206	0.242349	0.971382	0.291938	0.244375	0.556266	0.437099	0.612216	0.375763	0.891213	0.521001	0.759572	1.40325
-0.319293	0.706616	0.405699	0.443837	0.194778	0.946506	0.312177	0.250337	0.788609	0.74878	0.873699	0.813461	0.651144	0.282081	0.489961	1.248289
-0.283617	0.661484	0.390009	0.444268	0.015151	0.760769	0.268348	0.15677	0.720492	0.657765	0.78479	0.675462	0.755168	0.368257	0.719178	1.299153
-0.155052	0.69367	0.332362	0.464229	0.106924	0.898715	0.346045	0.271069	0.591774	0.506593	0.68443	0.497609	0.653344	0.259765	0.4591	1.230625
-0.060673	0.829067	0.407465	0.503334	0.050543	0.876743	0.359653	0.253671	0.590435	0.482009	0.65104	0.475262	0.673947	0.303101	0.635751	1.264522
-0.155052	0.751806	0.299209	0.463395	0.133049	0.971382	0.40328	0.328652	0.379522	0.213037	0.481782	0.170398	0.676077	0.324304	0.635751	1.264148
-0.044406	0.881021	0.424732	0.522902	0.183995	0.99551	0.405163	0.309448	0.46085	0.348186	0.551055	0.20931	0.956262	0.5406	0.987622	1.400537
-0.249182	0.797053	0.382969	0.483776	0.067935	0.837994	0.328674	0.19329	0.481135	0.345612	0.606916	0.31922	1.077731	0.647243	1.213373	1.450552
0.284289	1.059264	0.706839	0.662381	0.044337	0.770699	0.303526	0.144829	0.332916	0.135506	0.460412	0.056388	0.78053	0.387101	0.797059	1.261407
-0.309346	0.578132	0.292427	0.445922	0.036914	0.770053	0.288988	0.145649	0.5001	0.400607	0.663476	0.421547	0.92056	0.472774	1.058664	1.328641
0.392792	1.047428	0.673686	0.6238	-0.010455	0.723856	0.288988	0.145649	0.524278	0.427687	0.68443	0.428049	0.824034	0.38628	0.899275	1.208161
-0.249182	0.558864	0.341128	0.426429	0.180368	0.95147	0.379971	0.27558	0.629607	0.575396	0.785661	0.580207	0.725043	0.256558	0.781865	1.139129
0.48717	1.018715	0.731937	0.624052	-0.085555	0.60956	0.221072	0.052521	0.398671	0.304569	0.593296	0.278266	0.70171	0.25752	0.586763	1.088425
-0.138536	0.602007	0.358518	0.427627	-0.097771	0.566427	0.210562	0.033846	0.567473	0.471384	0.717536	0.560635	0.765744	0.364163	0.776728	1.137998
0.284289	0.826815	0.557886	0.545804	-0.081697	0.565616	0.182325	0.020389	0.457035	0.357043	0.64059	0.379707	0.901903	0.494536	0.991462	1.240845
-0.044406	0.639632	0.349847	0.446707	0.076805	0.816156	0.339319	0.212282	0.522968	0.403234	0.628453	0.42676	0.723118	0.300585	0.669273	1.070965
0.269638	0.812831	0.557886	0.565287	-0.026604	0.681169	0.248263	0.098759	0.568805	0.474045	0.627407	0.430609	0.878941	0.474628	0.827867	1.190983
0.473297	0.871108	0.615892	0.604016	-0.109988	0.591863	0.223124	0.033092	0.501403	0.403234	0.639916	0.424165	0.762956	0.386694	0.812514	1.138379
0.160074	0.768702	0.474902	0.525701	-0.153584	0.523422	0.19697	-0.015347	0.541883	0.460709	0.70734	0.513248	0.702703	0.364972	0.72564	1.156274
-0.138536	0.40617	0.241854	0.388321	-0.129861	0.546509	0.209533	-0.04954	0.391292	0.175813	0.551421	0.268802	0.661817	0.321934	0.67409	1.227331
0.033956	0.602007	0.374281	0.46619	-0.015349	0.683879	0.301565	0.026944	0.431699	0.206385	0.619381	0.353687	0.483925	0.106231	0.438097	1.17809
0.284289	0.632956	0.516433	0.467977	-0.090104	0.592611	0.287998	-0.021288	0.49616	0.230536	0.61768	0.358757	0.602496	0.235537	0.648141	1.318035
0.128836	0.717458	0.44068	0.427627	-0.015349	0.61774	0.27938	0.006693	0.432979	0.184807	0.606916	0.335303	0.575348	0.215737	0.516624	1.35471
0.649666	0.844643	0.532753	0.486745	-0.109988	0.503583	0.226174	-0.086535	0.391292	0.065416	0.493678	0.162746	0.440467	0.085522	0.328063	1.198519
0.525643	0.910096	0.48252	0.467283	0.087852	0.75205	0.30644	0.071939	0.49616	0.268609	0.696206	0.466006	0.759127	0.409669	0.740407	1.387567
0.033956	0.692739	0.316755	0.330915	0.100452	0.817921	0.293886	0.105441	0.520331	0.298023	0.695244	0.490956	0.524923	0.171368	0.433776	1.196996
-0.283617	0.635779	0.232996	0.291223	0.073095	0.770699	0.254276	0.09074	0.478561	0.298023	0.717536	0.536923	0.66486	0.343643	0.695016	1.316083
0.033956	0.802378	0.250664	0.331346	0.116741	0.883493	0.281336	0.155375	0.586386	0.428238	0.762161	0.672582	0.660786	0.367227	0.612764	1.282585
-0.266247	0.764045	0.142854	0.272312	-0.066406	0.702843	0.180087	0.009831	0.457035	0.300615	0.672634	0.539646	0.620856	0.346106	0.499318	1.265618
0.364266	1.052212	0.392734	0.468314	-0.019087	0.815548	0.217656	0.059642	0.348382	0.230536	0.628797	0.428049	0.573062	0.369829	0.251181	1.285413
0.239481	1.035012	0.283694	0.466562	0.000808	0.904855	0.282309	0.141518	0.475966	0.300615	0.672967	0.585764	0.618712	0.41231	0.534406	1.353568
-0.171868	0.944461	0.217664	0.446707	-0.109988	0.767374	0.215648	0.047966	0.430414	0.314471	0.663152	0.514604	0.578714	0.347053	0.45082	1.35471
-0.283617	0.738745	0.124907	0.386147	-0.165718	0.722441	0.241731	0.062803	0.347159	0.235646	0.595104	0.429332	0.659748	0.368257	0.688316	1.458989
0.160074	0.968942	0.400203	0.544558	-0.038971	0.836155	0.26781	0.144006	0.345931	0.235646	0.61768	0.42676	0.56039	0.302812	0.569588	1.389578
0.298662	0.865191	0.400203	0.54488	-0.074936	0.679756	0.20713	0.061229	0.325736	0.238196	0.650022	0.45034	0.742559	0.431457	0.920452	1.509101
0.175259	0.885665	0.491068	0.544558	-0.114606	0.635759	0.160126	-0.022807	0.284114	0.086968	0.604427	0.318012	0.697657	0.367921	0.764267	1.477756
0.032582	0.788981	0.441811	0.467977	-0.237209	0.458322	0.0645	-0.203845	0.38753	0.134149	0.684104	0.42023	0.76201	0.366131	1.023975	1.581963
-0.309346	0.74528	0.365546	0.407773	-0.134424	0.525819	0.042719	-0.208055	0.366107	0.148053	0.740151	0.441101	0.824916	0.428374	1.225034	1.598003
-0.215954	0.881021	0.407465	0.428013	-0.142046	0.479717	-0.007935	-0.288783	0.259186	-0.020944	0.616277	0.245467	0.688171	0.277148	1.100782	1.52704
-0.436701	0.725963	0.248288	0.330031	-0.071179	0.550337	0.008585	-0.260713	0.191721	-0.049609	0.595104	0.197715	0.724085	0.321566	0.961849	1.475576
0.204779	0.996614	0.574361	0.449235	-0.225173	0.347417	-0.082253	-0.401498	0.12795	-0.11357	0.551784	0.108483	0.566914	0.213586	0.776117	1.369764
0.392792	1.017279	0.524283	0.448193	-0.074936	0.528128	-0.018248	-0.2579	0.190556	-0.044752	0.596159	0.240625	0.645461	0.321566	0.894716	1.368937
0.433532	0.93074	0.541381	0.430848	-0.066406	0.592611	0.027218	-0.174266	0.235484	0.072166	0.595104	0.289732	0.586281	0.21388	0.745255	1.265257
0.312758	0.885665	0.458703	0.410803	-0.129861	0.523422	-0.001824	-0.218687	0.16814	0.026778	0.552859	0.220972	0.453167	0.126894	0.582141	1.194674
0.298662	0.878848	0.38425	0.410448	-0.145878	0.569572	0.023044	-0.15236	0.146908	0.02923	0.553912	0.241844	0.412355	0.084216	0.381157	1.126634
-0.044406	0.725646	0.175823	0.330476	-0.074936	0.658822	0.060378	-0.087994	0.148054	0.055613	0.519278	0.203587	0.511048	0.170063	0.612764	1.228839
0.284289	0.903199	0.425704	0.429836	-0.114606	0.636488	0.048969	-0.087263	0.314606	0.241843	0.664748	0.464661	0.513188	0.170063	0.72564	1.211216
-0.155052	0.629329	0.208823	0.330031	-0.027766	0.771335	0.100809	0.02379	0.273261	0.241843	0.664117	0.42023	0.665858	0.321566	0.827867	1.314859
0.66331	1.241931	0.615892	0.56557	-0.071179	0.725906	0.076936	-0.025885	0.398599	0.34456	0.742248	0.573134	0.704665	0.365365	0.971577	1.314021
-0.343065	0.482524	0.142854	0.292149	-0.015349	0.793738	0.116274	-0.026663	0.437254	0.436403	0.855446	0.697842	0.705634	0.408002	0.996968	1.313596
0.378668	1.061743	0.582708	0.507185	-0.055085	0.704208	0.053094	-0.093208	0.462675	0.406755	0.809351	0.657853	0.58416	0.300925	0.709625	1.193971
-0.419447	0.469892	0.142854	0.214744	0.104124	0.861603	0.129711	0.01896	0.441304	0.360836	0.787066	0.570267	0.423484	0.128874	0.389389	1.074365
-0.012754	0.666254	0.375719	0.333001	-0.197193	0.522603	-0.049361	-0.267957	0.526866	0.450055	0.865123	0.747103	0.46571	0.192778	0.468694	1.072886
-0.402494	0.457221	0.193518	0.216206	0.000808	0.727869	0.030309	-0.126397	0.276927	0.163242	0.583272	0.271204	0.402919	0.150155	0.324073	0.970294
-0.402494	0.450872	0.16061	0.15886	-0.193297	0.501144	-0.084395	-0.269949	0.357234	0.279787	0.719397	0.528621	0.347353	0.085186	0.171478	0.884339
-0.605502	0.37492	0.094883	0.081368	-0.114606	0.616341	-0.067759	-0.240368	0.230709	0.131628	0.596506	0.377144	0.430498	0.192237	0.368508	0.899954
-0.698167	0.324506	-0.036208	0.062147	-0.067436	0.705535	-0.043012	-0.160265	0.184646	0.102601	0.554603	0.326427	0.411204	0.12762	0.338093	0.848676
-0.646032	0.387694	0.032065	0.083509	-0.079787	0.728504	-0.040926	-0.145579	0.187026	0.088667	0.542496	0.354963	0.671679	0.406678	0.822016	1.016697
-0.385836	0.533044	0.079812	0.159358	-0.233962	0.617045	-0.10166	-0.274715	0.103357	0.024322	0.487576	0.267592	0.590425	0.342875	0.685093	0.966316
-0.790592	0.488751	0.023249	0.15886	-0.233962	0.614903	-0.116131	-0.2579	0.227072	0.209972	0.61059	0.506384	0.5711	0.321192	0.659528	0.983651
-0.698167	0.425489	-0.152509	0.098951	-0.312646	0.593349	-0.127406	-0.322352	0.272029	0.255618	0.632104	0.532797	0.867173	0.601262	1.146934	1.203512
-0.075398	0.779509	0.228342	0.295169	-0.296824	0.569572	-0.141897	-0.321686	0.187026	0.112649	0.53035	0.358757	0.469117	0.171121	0.459909	0.934294
-0.663113	0.324506	-0.143336	0.138572	-0.379311	0.457481	-0.218103	-0.465152	0.166976	0.091162	0.552503	0.357498	0.414631	0.127143	0.364213	0.933749
-0.703987	0.237258	-0.056813	0.103206	-0.233962	0.594077	-0.152076	-0.339774	0.126823	0.053154	0.562513	0.315579	0.707549	0.407127	0.893893	1.154725
-0.521264	0.281009	0.114743	0.161277	-0.221857	0.548835	-0.200272	-0.371262	0.042022	-0.073117	0.473482	0.181474	0.331725	0.0411	0.194257	0.866387
-0.646032	0.331109	0.121343	0.14111	-0.221857	0.504377	-0.249476	-0.404023	-0.002425	-0.058887	0.552145	0.245467	0.516337	0.125246	0.502526	0.898618
-0.663113	0.324813	0.047085	0.044614	-0.190791	0.552517	-0.281883	-0.407255	-0.130944	-0.274433	0.418987	0.089861	0.374983	0.040507	0.277341	0.797515
-1.230075	-0.191666	-0.264466	-0.128186	-0.226403	0.508932	-0.327552	-0.440552	-0.073079	-0.16089	0.488307	0.213688	0.335326	-0.066724	0.220689	0.712626
-1.249165	-0.165559	-0.278554	-0.146619	-0.305	0.508197	-0.365359	-0.487845	-0.116101	-0.12317	0.477635	0.192913	0.376137	-0.002666	0.220689	0.695361
-1.430958	-0.375152	-0.458962	-0.222827	-0.31701	0.486057	-0.385289	-0.490362	-0.099413	-0.149209	0.457404	0.253908	0.225025	-0.152728	0.15221	0.610565
-1.120512	-0.231502	-0.343327	-0.145331	-0.535828	0.219593	-0.496083	-0.679499	-0.162139	-0.21043	0.369057	0.168515	0.167671	-0.216839	0.178393	0.610245
-1.541604	-0.471672	-0.491276	-0.223522	-0.504656	0.286534	-0.458416	-0.634112	-0.122483	-0.130404	0.414138	0.23319	0.382895	-0.025543	0.441877	0.710818
-1.320856	-0.371089	-0.407983	-0.145972	-0.500791	0.331462	-0.419612	-0.60295	-0.143367	-0.149209	0.35924	0.166084	0.125644	-0.259394	0.069259	0.594028
-1.211293	-0.53581	-0.440267	-0.184743	-0.597942	0.199483	-0.481606	-0.713372	-0.122483	-0.106758	0.392169	0.166084	0.20712	-0.238371	0.299281	0.694598
-1.392166	-0.599668	-0.421764	-0.164378	-0.629167	0.175627	-0.471741	-0.712298	-0.22375	-0.245792	0.312948	0.017373	0.061629	-0.408434	-0.068009	0.628558
-1.192813	-0.7209	-0.430992	-0.145972	-0.543569	0.222358	-0.445099	-0.698083	-0.224755	-0.266986	0.323517	0.015153	0.227442	-0.259789	0.208577	0.712063
-0.737746	-0.447136	-0.130679	-0.011157	-0.512428	0.242514	-0.458416	-0.696988	-0.285329	-0.34712	0.277009	-0.154343	0.225025	-0.323323	0.156145	0.712443
-1.120512	-0.820445	-0.37567	-0.165029	-0.606175	0.084759	-0.533741	-0.822582	-0.248614	-0.276259	0.411887	0.033608	0.264505	-0.21743	0.269021	0.728753
-1.230075	-0.715856	-0.301797	-0.201778	-0.594245	0.06799	-0.564294	-0.841291	-0.328871	-0.353899	0.37607	-0.069027	0.241734	-0.259628	0.182419	0.677934
-1.102262	-0.887932	-0.357283	-0.238434	-0.547469	0.068996	-0.609218	-0.874251	-0.312938	-0.325424	0.389094	-0.010036	0.305132	-0.175235	0.351095	0.676731
-1.120512	-0.898261	-0.463217	-0.295302	-0.58244	0.114675	-0.668456	-0.953237	-0.315921	-0.33005	0.433911	0.054287	0.167671	-0.302156	0.087995	0.509153
-1.192813	-1.078835	-0.550377	-0.369527	-0.675473	-0.060859	-0.723943	-1.002037	-0.459672	-0.472646	0.289301	-0.137553	0.170149	-0.281087	0.110134	0.458628
-1.430958	-1.156133	-0.614511	-0.38988	-0.830031	-0.105472	-0.773271	-1.079287	-0.419315	-0.369836	0.290999	-0.116817	0.188012	-0.259789	0.114138	0.475194
-1.521509	-1.206966	-0.646534	-0.370985	-0.763679	-0.011207	-0.744404	-1.019022	-0.40058	-0.348792	0.369057	0.034752	0.245366	-0.174929	0.230412	0.542027
-1.450822	-1.206966	-0.655964	-0.373226	-0.875677	-0.127221	-0.774491	-1.062839	-0.503615	-0.411887	0.270749	-0.140648	0.185537	-0.280872	0.114138	0.508741
-0.612742	-0.791578	-0.271143	-0.122062	-0.937343	-0.150096	-0.754087	-1.060822	-0.542124	-0.461573	0.223454	-0.198916	0.289441	-0.217685	0.337638	0.575491
-1.411407	-1.252754	-0.573133	-0.315664	-0.826001	-0.041219	-0.658768	-0.934368	-0.459672	-0.356166	0.312534	-0.050372	0.382895	-0.089974	0.493079	0.710368
-0.778319	-0.996762	-0.312142	-0.122062	-0.883758	-0.151245	-0.658768	-0.981547	-0.47674	-0.408335	0.231699	-0.19513	0.363726	-0.111269	0.40704	0.744518
-1.011481	-1.057997	-0.380387	-0.123825	-0.640444	0.070978	-0.560797	-0.810273	-0.377993	-0.335047	0.322271	-0.071128	0.360353	-0.174524	0.325246	0.728544
-1.102262	-1.016961	-0.324999	-0.163099	-0.644339	0.051119	-0.585016	-0.857535	-0.353443	-0.34712	0.319712	-0.110673	0.321983	-0.174652	0.238786	0.711867
-1.392166	-1.206966	-0.440267	-0.23978	-0.64462	0.00347	-0.58736	-0.934368	-0.314921	-0.318509	0.376884	-0.051451	0.380675	-0.132377	0.320886	0.728113
-1.246615	-1.226598	-0.339086	-0.17899	-0.4657	0.179402	-0.526742	-0.856559	-0.310002	-0.309336	0.418987	-0.024234	0.341162	-0.153357	0.290703	0.728113
-1.211265	-1.190778	-0.297861	-0.177789	-0.453914	0.178473	-0.552167	-0.903339	-0.271424	-0.29508	0.464736	0.057758	0.337685	-0.153083	0.212654	0.728544
-1.104824	-1.027289	-0.23338	-0.140464	-0.5086	0.131715	-0.566645	-0.91818	-0.288235	-0.266986	0.440688	-0.001263	0.263313	-0.23846	0.118102	0.660712
-1.283135	-0.867216	-0.181174	-0.125651	-0.414852	0.267172	-0.502465	-0.841291	-0.143367	-0.099496	0.542141	0.169722	0.239272	-0.216839	0.008866	0.678119
-0.811967	-0.492284	0.138748	0.04778	-0.270282	0.422821	-0.390806	-0.668687	-0.203895	-0.198674	0.430829	-0.003421	0.382895	-0.047819	0.346647	0.794598
-1.177087	-0.557418	-0.16173	-0.072747	-0.274033	0.398439	-0.345362	-0.618823	-0.095131	-0.016081	0.528499	0.155953	0.359212	-0.068248	0.411591	0.829183
-0.260969	0.087877	0.285433	0.199708	-0.473425	0.195683	-0.386412	-0.694311	-0.012239	0.064721	0.608622	0.282271	0.414631	0.017939	0.390216	0.897764
-0.623241	-0.059553	0.091907	0.138572	-0.328449	0.352666	-0.288643	-0.53572	-0.048858	-0.025454	0.482984	0.092068	0.313681	-0.088434	0.281442	0.864921
-0.698167	0.100924	0.193518	0.119841	-0.383215	0.326191	-0.270721	-0.563576	0.03208	0.069687	0.57467	0.217356	0.387195	0.019199	0.350586	0.934024
-1.031756	-0.116605	-0.048987	0.021357	-0.300671	0.349206	-0.222691	-0.50018	0.054287	0.048226	0.56323	0.217356	0.446364	0.083777	0.468694	0.985485
-0.138536	0.505067	0.391609	0.254825	-0.277148	0.373055	-0.185794	-0.484775	-0.046743	-0.132631	0.460817	0.026017	0.766658	0.404333	1.078188	1.204395
-0.846185	-0.055882	0.016861	0.059259	-0.18618	0.504377	-0.115064	-0.403386	0.117606	0.045757	0.606916	0.262696	0.530362	0.190117	0.63865	1.017721
-0.138536	0.461317	0.358518	0.235973	-0.328104	0.304996	-0.189049	-0.564141	0.287007	0.193605	0.70734	0.481405	0.369085	0.083777	0.350586	0.916719
-0.249182	0.224853	0.274915	0.138572	-0.108182	0.531071	-0.084097	-0.410572	0.078802	-0.104022	0.494856	0.067858	0.352196	0.018602	0.429416	0.881636
-0.155052	0.262227	0.274915	0.140116	-0.182385	0.418921	-0.124215	-0.553461	0.096487	-0.139633	0.518538	0.128153	0.374983	-0.003483	0.338093	0.847439
-0.827342	-0.12239	0.002209	-0.089357	-0.379273	0.129713	-0.237182	-0.774631	0.173678	-0.057824	0.644432	0.357207	0.456458	0.081147	0.502526	0.880231
-0.4954	-0.059553	0.094883	-0.086343	-0.142869	0.377986	-0.121058	-0.556524	0.111674	-0.095291	0.587463	0.25263	0.574156	0.144764	0.619222	0.93044
-0.698167	-0.208676	-0.021538	-0.125651	-0.276725	0.219593	-0.18796	-0.664168	0.112871	-0.052866	0.598538	0.253908	0.437216	0.038063	0.385792	0.812543
-0.588065	-0.07144	0.11257	-0.08462	-0.237763	0.267172	-0.161175	-0.602359	0.176152	0.034662	0.642872	0.38469	0.302813	-0.068454	0.20446	0.711251
-0.846776	-0.413692	-0.148655	-0.237772	-0.237763	0.289148	-0.148859	-0.554067	0.091802	-0.050391	0.554945	0.229397	0.319652	-0.089395	0.269021	0.745208
-1.066441	-0.44528	-0.208583	-0.239104	-0.383215	0.198548	-0.18796	-0.631277	0.090617	-0.050391	0.544233	0.204931	0.380675	-0.047346	0.38133	0.728113
-1.249165	-0.668246	-0.329416	-0.314947	-0.31649	0.242514	-0.186876	-0.584697	0.193515	0.072161	0.611227	0.355834	0.203426	-0.217204	0.178393	0.64406
-1.430958	-0.794847	-0.42662	-0.39063	-0.242298	0.333966	-0.193794	-0.572404	0.090617	-0.090396	0.487943	0.142951	0.170149	-0.302355	0.200304	0.576489
-1.283135	-0.747104	-0.30686	-0.386239	-0.422572	0.157493	-0.304181	-0.731363	0.068396	-0.092842	0.487576	0.142951	0.285993	-0.196466	0.346647	0.626523
-1.283135	-0.747104	-0.389538	-0.423901	-0.457789	0.113716	-0.376453	-0.810787	0.109264	-0.012892	0.566672	0.248762	0.405314	-0.048848	0.488302	0.7099
-1.032205	-0.695633	-0.239004	-0.363319	-0.364334	0.270575	-0.358663	-0.718945	0.025212	-0.135243	0.444178	0.054287	0.324281	-0.196466	0.376831	0.626706
-1.066653	-0.659407	-0.256712	-0.383455	-0.481329	0.204012	-0.380837	-0.734706	0.070745	0.023398	0.500063	0.097984	0.149827	-0.344631	0.084082	0.509524
-1.174633	-0.711961	-0.394364	-0.478072	-0.55136	0.139323	-0.428417	-0.749902	0.242074	0.290826	0.588784	0.228121	-0.026934	-0.534917	-0.321481	0.325701
-1.611831	-0.929493	-0.559721	-0.518666	-0.501068	0.272218	-0.354274	-0.623007	0.187026	0.273783	0.476159	0.015153	0.130749	-0.386931	0.080128	0.509405
-1.246615	-0.722896	-0.367387	-0.439106	-0.713759	0.008552	-0.477036	-0.779789	0.211825	0.310956	0.430034	-0.047171	-0.04458	-0.534823	-0.208321	0.409276
-0.959192	-0.634348	-0.344252	-0.383455	-0.705953	0.010515	-0.475903	-0.748246	0.227072	0.298023	0.455578	0.028975	0.091341	-0.450309	-0.062162	0.476297
-0.761921	-0.573797	-0.285614	-0.343878	-0.82924	-0.122818	-0.525588	-0.809762	0.22829	0.34661	0.555621	0.117429	0.128213	-0.42923	0.027856	0.543561
-1.174633	-0.789583	-0.481482	-0.460038	-0.763679	-0.056655	-0.474773	-0.747159	0.16814	0.289233	0.464736	-0.028544	0.189237	-0.408074	0.140166	0.576928
-1.392166	-0.789583	-0.522631	-0.461524	-0.721313	0.008552	-0.463758	-0.699751	0.164632	0.281522	0.510392	0.033608	0.205897	-0.386915	0.148235	0.594546
-1.283135	-0.846322	-0.541081	-0.444212	-0.625	0.117495	-0.440578	-0.651699	0.229502	0.392707	0.554603	0.099173	0.109126	-0.471415	0.114138	0.577794
-0.902979	-0.360602	-0.224486	-0.254753	-0.625	0.117495	-0.440578	-0.667537	0.213004	0.302021	0.45095	-0.045067	0.167671	-0.42919	0.260544	0.679288
-0.902979	-0.379644	-0.242321	-0.256728	-0.756238	-0.017295	-0.492615	-0.791952	0.214177	0.321245	0.496011	-0.002339	0.10259	-0.492852	-0.047929	0.646295
-0.687538	-0.404836	-0.242321	-0.200472	-0.628841	0.094736	-0.417369	-0.698635	0.260368	0.336584	0.459594	-0.018981	0.215026	-0.450749	0.163894	0.731743
-0.44558	0.11297	0.017007	-0.048787	-0.714175	0.046121	-0.423006	-0.726064	0.301916	0.394454	0.538841	0.044783	0.286937	-0.323308	0.232438	0.851713
-0.461896	0.113228	-0.018281	-0.05113	-0.60186	0.131715	-0.352011	-0.630167	0.261545	0.377759	0.559548	0.068951	0.275208	-0.365742	0.220689	0.817183
-0.385836	0.30587	0.047085	0.063794	-0.508535	0.263613	-0.242897	-0.50198	0.241333	0.295405	0.525015	-0.038898	0.328048	-0.344587	0.315969	0.869178
0.075436	0.454746	0.229755	0.123845	-0.305693	0.396822	-0.13232	-0.342469	0.36983	0.467996	0.647921	0.136169	0.44403	-0.21655	0.433776	0.954776
0.298662	0.765835	0.294008	0.236877	-0.426453	0.28198	-0.125275	-0.401498	0.501403	0.605305	0.770208	0.290955	0.515792	-0.130635	0.420091	1.007468
-0.044406	0.596937	0.109915	0.136414	-0.218898	0.506698	0.035386	-0.177906	0.695958	0.845837	0.950417	0.555089	0.670691	0.085007	0.719178	1.179684
-0.326056	0.501569	0.053121	0.097816	-0.171082	0.571827	0.105831	-0.141132	0.826252	0.956948	1.028781	0.644395	0.807821	0.193534	0.930826	1.283679
-0.623241	0.343003	-0.021538	0.077348	-0.154231	0.611136	0.172614	-0.086535	0.823248	0.903758	1.040772	0.619157	0.663952	0.042698	0.525034	1.14701
-0.734436	0.336848	-0.063457	0.05744	-0.107061	0.635759	0.198592	-0.054669	0.76395	0.826496	1.028043	0.581604	0.905121	0.324614	0.847825	1.319516
0.017751	0.608612	0.211024	0.292602	-0.040183	0.771961	0.26112	0.009051	0.743646	0.80996	1.061458	0.671134	0.870648	0.280152	0.858702	1.266326
-0.122317	0.57086	0.193518	0.291223	-0.027766	0.746967	0.259183	-0.004958	0.750724	0.846298	1.127541	0.72907	0.990313	0.410067	1.002439	1.352385
-0.152989	0.437122	0.204174	0.293916	-0.031488	0.813021	0.282309	0.029275	0.766834	0.873765	1.151851	0.742884	1.047638	0.454918	1.095184	1.405391
0.096277	0.582142	0.243902	0.408961	-0.091008	0.812365	0.28036	0.013678	0.790057	0.83783	1.11714	0.678319	0.845079	0.281828	0.688316	1.302471
-0.4954	0.312193	0.11257	0.311078	-0.161875	0.786364	0.26385	0.000305	0.771121	0.821215	1.128018	0.747289	0.803664	0.282327	0.626673	1.285413
-0.419447	0.324813	0.127731	0.387901	-0.107061	0.902516	0.353839	0.096388	0.947542	1.025022	1.218973	0.861684	1.004639	0.521431	0.951367	1.475576
-0.716147	0.118374	0.020303	0.309212	-0.138228	0.922652	0.401382	0.115985	1.077752	1.195503	1.333818	1.013851	0.902154	0.391737	0.750066	1.390731
-0.623241	0.237258	0.127731	0.387473	-0.094776	0.923276	0.425682	0.148894	1.186225	1.256775	1.357218	1.054159	0.719465	0.282797	0.489961	1.339737
-0.623241	0.205822	0.035087	0.34717	0.044337	1.082505	0.50063	0.264313	1.082557	1.11472	1.219179	0.792393	0.836671	0.370952	0.529177	1.410439
-0.547896	0.261956	0.199935	0.386147	0.189093	1.154503	0.544038	0.322308	0.959561	0.907919	1.046453	0.51048	0.982096	0.500715	0.930826	1.530301
-0.547896	0.255796	0.266087	0.386147	0.064255	0.971382	0.479016	0.227044	1.194573	1.198553	1.299457	0.855537	1.10683	0.563446	1.126153	1.527993
0.254703	0.721487	0.540509	0.582677	0.194792	1.064124	0.533169	0.320466	1.2472	1.171691	1.229093	0.753084	0.967044	0.389393	0.976961	1.423655
-0.155052	0.475897	0.456593	0.504097	0.304137	1.131487	0.520535	0.338789	1.331005	1.291694	1.367585	0.947518	0.880392	0.326051	0.640231	1.355812
0.239481	0.741821	0.69909	0.621847	0.098164	0.811023	0.364511	0.1144	1.331005	1.294795	1.356002	0.924888	1.20414	0.629731	1.199655	1.580488
-0.249182	0.608612	0.565299	0.504468	0.401063	1.131487	0.522308	0.370831	1.137884	1.065039	1.183015	0.620464	1.159506	0.588198	1.060427	1.581475
-0.077239	0.799962	0.648543	0.542845	0.317091	0.99551	0.433142	0.25646	1.238839	1.227161	1.356163	0.899119	1.305562	0.737901	1.399913	1.682905
-0.283617	0.775549	0.505902	0.484172	0.235006	0.925089	0.406099	0.212282	1.238839	1.275321	1.321574	0.836034	1.001859	0.434554	0.873887	1.42448
0.033956	0.993066	0.623598	0.524357	0.401063	1.132277	0.487132	0.369886	1.085735	1.098214	1.206947	0.683966	1.122399	0.565766	0.961849	1.493942
0.049972	0.955058	0.565299	0.505188	0.262457	0.948808	0.421469	0.292061	1.01339	0.999715	1.139835	0.588508	1.125762	0.585355	1.095184	1.54402
-0.077239	1.202394	0.632132	0.524004	0.262457	0.969713	0.444825	0.311236	1.143803	1.198553	1.288239	0.855537	1.087923	0.54155	1.058664	1.508622
-0.283617	1.125793	0.49859	0.426015	0.276931	0.994492	0.422385	0.30855	1.077752	1.111732	1.196637	0.766874	0.82334	0.304183	0.538806	1.285413
-0.301298	1.069744	0.372361	0.464229	0.253259	0.948247	0.408884	0.309448	1.0965	1.105748	1.208616	0.808911	0.908015	0.368257	0.67887	1.353178
0.430001	1.445356	0.624113	0.583313	0.300578	1.040167	0.474538	0.373648	1.16251	1.150597	1.185691	0.810433	1.146346	0.586808	1.038818	1.509101
-0.077239	1.101411	0.390009	0.484942	0.121936	0.833568	0.369276	0.214802	1.204881	1.234301	1.254458	0.941077	1.147941	0.651694	1.151409	1.543524
0.254703	1.195177	0.541177	0.505881	0.200375	0.904284	0.37209	0.227044	1.226925	1.208769	1.243631	0.89435	1.170746	0.650077	1.201581	1.507158
0.239481	1.149815	0.449306	0.486045	0.307683	0.995006	0.411636	0.306743	1.294897	1.321139	1.266004	0.899119	1.03135	0.54155	0.996968	1.420629
0.017641	1.090285	0.524283	0.466926	0.093069	0.791193	0.30932	0.144829	1.121772	1.04448	1.094459	0.67974	1.091181	0.628154	1.170693	1.505656
-0.472126	0.648058	0.157937	0.271351	0.180368	0.813667	0.322813	0.176013	0.989874	0.926913	1.038336	0.566091	0.910836	0.433063	0.848397	1.350748
0.081129	0.810238	0.45028	0.410803	0.009485	0.60956	0.234141	0.030045	0.81765	0.71284	0.890359	0.368617	0.868717	0.390441	0.709625	1.299922
-0.138536	0.564318	0.283694	0.292602	0.154901	0.816754	0.302465	0.121794	0.924108	0.818406	0.947384	0.456767	0.785061	0.304434	0.45082	1.2323
-0.419447	0.500569	0.301112	0.273701	0.111425	0.770053	0.287116	0.075196	0.944486	0.857237	0.982094	0.521298	0.890271	0.389749	0.67409	1.282585
-0.753037	0.312126	0.133904	0.213219	0.305223	0.996965	0.376706	0.235578	0.941409	0.873765	1.005463	0.539646	1.047638	0.499509	0.858702	1.370171
-0.044406	0.728273	0.457885	0.408572	0.158496	0.884048	0.37579	0.187279	1.046099	1.084717	1.141997	0.735431	0.767539	0.216422	0.446619	1.197923
-0.716147	0.218044	0.133904	0.233091	0.095148	0.792485	0.362321	0.139843	1.046099	1.04012	1.119584	0.69061	0.971542	0.389029	0.761301	1.335015
-0.1839	0.524892	0.41725	0.351555	0.162076	0.90704	0.390158	0.202791	0.960167	0.934698	1.051118	0.559257	1.110076	0.496903	1.120467	1.472816
-0.641288	0.387694	0.199935	0.251462	-0.074936	0.633511	0.271711	-0.004196	0.874337	0.80996	0.959521	0.429332	0.945479	0.324916	0.754838	1.336921
0.017751	0.680607	0.392734	0.371704	-0.099572	0.546509	0.212069	-0.088729	0.875843	0.80996	0.959521	0.387255	0.989433	0.367227	0.925657	1.404119
-0.215954	0.463007	0.226457	0.272782	0.044627	0.729745	0.253404	0.002697	0.743646	0.583261	0.825016	0.229206	0.952796	0.300585	0.946072	1.368093
-0.326056	0.57086	0.367142	0.292602	0.006789	0.704208	0.248606	-0.075453	0.747909	0.605305	0.803514	0.250215	0.691332	0.041786	0.595891	1.24758
-0.122317	0.603433	0.274915	0.252945	0.055368	0.725906	0.283278	-0.076212	0.897685	0.732281	0.861383	0.400637	0.834337	0.16949	0.797059	1.367664
-0.478501	0.507964	0.30975	0.255277	0.151293	0.701439	0.317068	-0.044485	0.833674	0.643969	0.82892	0.375854	0.713009	0.061796	0.622075	1.368937
-0.402494	0.59093	0.241854	0.195419	0.136725	0.677563	0.363547	-0.027444	0.91954	0.723897	0.87528	0.482786	0.787161	0.105794	0.697608	1.510974
0.175259	1.094407	0.63249	0.39032	-0.005684	0.447571	0.267323	-0.184865	1.09813	0.909563	0.908341	0.619157	0.851037	0.190758	0.863801	1.615009
-0.028435	0.992215	0.507202	0.331346	0.191063	0.718729	0.443324	0.010607	0.967939	0.820812	0.819145	0.464661	0.803664	0.170868	0.764267	1.636621
0.223968	1.256375	0.556702	0.428013	0.282577	0.765976	0.481374	0.041704	0.927127	0.743418	0.728372	0.36001	0.844057	0.256886	0.883824	1.724177
-0.138536	1.039526	0.398761	0.272782	0.359572	0.787083	0.504863	0.076002	0.992974	0.854391	0.806842	0.515954	0.789228	0.16949	0.83792	1.652179
-0.266247	1.066351	0.381209	0.272312	0.324826	0.717175	0.47655	0.079193	0.842409	0.710103	0.693928	0.364964	0.728326	0.126894	0.780981	1.634612
-0.547896	0.835735	0.148922	0.079114	0.183591	0.582118	0.388676	-0.068048	0.749319	0.605305	0.663152	0.336548	0.606326	0.041282	0.4591	1.477756
-0.808812	0.515353	-0.081865	-0.054859	0.111817	0.511991	0.322259	-0.129868	0.616119	0.489945	0.598205	0.222166	0.609805	0.04091	0.512358	1.458557
-0.512596	0.764385	0.118847	0.004546	0.227608	0.672099	0.350667	-0.034643	0.570131	0.484658	0.57571	0.224536	0.713009	0.061563	0.591346	1.421515
-0.827342	0.594386	-0.030639	-0.034418	0.182092	0.652822	0.330425	-0.054669	0.464616	0.344209	0.462414	0.076431	0.589107	-0.002129	0.274488	1.318412
-0.10639	0.960069	0.243902	0.102699	0.205839	0.696989	0.330425	-0.021288	0.524278	0.443445	0.53035	0.204743	0.469571	-0.130849	0.151941	1.265974
-0.369471	0.545091	0.088615	0.045698	0.114458	0.695426	0.355697	-0.003438	0.524278	0.525867	0.57571	0.268802	0.671785	-0.002859	0.473028	1.351575
0.219122	0.958149	0.417911	0.239424	0.054336	0.559659	0.251602	-0.099979	0.672881	0.677022	0.642554	0.399339	0.808839	0.147641	0.657481	1.490708
0.12573	0.648651	0.285433	0.160807	0.158319	0.651222	0.342056	0.030045	0.779816	0.82865	0.732282	0.504995	0.666232	0.019199	0.481576	1.387978
0.514103	0.975873	0.566172	0.334915	0.139561	0.69218	0.387672	0.083879	0.87131	0.92887	0.798207	0.596852	0.805759	0.126373	0.719178	1.509101
0.378668	0.867598	0.524283	0.314073	0.440392	0.991782	0.53217	0.34155	0.747909	0.787766	0.661497	0.29579	0.861698	0.213586	0.816802	1.580488
0.392792	0.923867	0.707405	0.372448	0.221502	0.691343	0.384637	0.12066	1.007095	1.177148	0.931466	0.665286	0.778559	0.127848	0.702195	1.52893
-0.215954	0.418255	0.314687	0.177128	0.500077	0.966736	0.542065	0.379194	0.946016	1.013278	0.862499	0.559257	0.999006	0.344016	1.060427	1.667606
0.12573	0.717458	0.715628	0.334546	0.496476	0.87607	0.478491	0.313011	0.842409	0.916074	0.803829	0.433146	0.839887	0.235837	0.873887	1.545
-0.122317	0.584536	0.447855	0.215726	0.615267	1.012742	0.503907	0.395759	1.030612	1.202617	1.031522	0.756342	0.713652	0.128874	0.525034	1.458989
0.500771	1.068889	0.907905	0.431488	0.550416	0.922018	0.441379	0.296484	0.795795	0.885197	0.804141	0.412058	1.039568	0.431038	1.049693	1.630385
-0.588065	0.272548	0.314687	0.1006	0.461533	0.830113	0.378008	0.231298	0.874337	1.062412	0.952925	0.645845	0.695112	0.107192	0.489961	1.387567
0.12573	0.799962	0.665798	0.295969	0.461533	0.784145	0.339025	0.215635	0.769697	0.901751	0.815961	0.477855	0.941626	0.344016	0.807005	1.471861
-0.1839	0.603433	0.515766	0.17909	0.581542	0.945906	0.407272	0.358983	0.804503	0.992619	0.897398	0.622047	0.680124	0.149937	0.446619	1.315679
-0.385836	0.603433	0.449306	0.198342	0.431813	0.785634	0.328407	0.214802	0.723323	0.901751	0.794172	0.477855	0.965188	0.407568	0.879152	1.468895
-0.29293	0.565296	0.449306	0.17861	0.177215	0.534465	0.225319	0.068964	0.826252	1.043105	0.863042	0.650165	0.942602	0.409263	0.827867	1.505147
-0.588065	0.482524	0.374281	0.119841	0.378227	0.763805	0.355697	0.263454	0.765395	0.985084	0.805963	0.588508	1.124096	0.581717	1.095184	1.677594
-0.168304	0.648058	0.49957	0.275875	0.229075	0.603729	0.313725	0.184277	0.848014	1.12937	0.908591	0.715983	1.039568	0.496903	1.018644	1.663683
-0.772677	0.36141	0.274915	0.119841	0.269531	0.671278	0.324323	0.218115	0.955444	1.257408	0.942428	0.780309	1.118907	0.562961	1.111873	1.735502
-0.045528	0.737476	0.541177	0.314866	0.398507	0.786364	0.402351	0.332205	0.982036	1.26679	0.952925	0.760889	1.016891	0.432672	0.826447	1.702714
-0.29293	0.69367	0.423285	0.293047	0.500077	0.922652	0.516622	0.43171	0.835143	1.060955	0.849593	0.546353	1.056583	0.475945	1.060427	1.773034
-0.402494	0.874314	0.565299	0.33177	0.524002	0.85547	0.491197	0.39668	0.87884	1.080363	0.837783	0.50023	1.195851	0.607277	1.15954	1.863032
-0.436701	0.888574	0.488311	0.29075	0.594836	0.899373	0.552907	0.464941	1.007095	1.228126	1.007911	0.739919	0.91263	0.324916	0.71125	1.706549
0.284289	1.451377	0.900722	0.506869	0.587679	0.87607	0.551004	0.432637	0.946016	1.16392	1.007202	0.675462	1.014936	0.411591	0.888735	1.794196
-0.249182	1.138553	0.622606	0.329579	0.597327	0.874696	0.587381	0.435397	0.950578	1.134178	0.959798	0.593929	1.197574	0.497355	1.154063	1.880703
0.175259	1.466125	0.833385	0.467977	0.651659	0.919384	0.636636	0.470543	1.169164	1.440288	1.210314	0.968547	1.222398	0.516812	1.256164	1.878773
0.049972	1.323883	0.774492	0.388735	0.744612	0.966736	0.664094	0.501064	1.085735	1.291694	1.073481	0.747289	1.219159	0.5406	1.211003	1.915415
0.128836	1.470768	0.833502	0.446707	0.857927	1.082505	0.715327	0.582486	1.085735	1.272236	1.028292	0.724758	1.099952	0.452826	1.205346	1.878773
0.112774	1.330954	0.765974	0.368881	0.754576	1.010954	0.724522	0.537282	1.187904	1.385543	1.14337	0.91528	0.951273	0.347053	0.809354	1.742905
0.144601	1.309714	0.816648	0.389541	0.765184	0.990039	0.725434	0.517729	1.126659	1.308014	1.041003	0.742884	1.218329	0.60572	1.310672	1.913421
0.459147	1.37358	0.917145	0.448894	0.803107	0.969713	0.752014	0.54618	1.15199	1.356268	1.05205	0.790902	1.118907	0.496903	1.247946	1.842858
0.364266	1.359072	0.875304	0.468644	0.714092	0.968551	0.801648	0.515809	1.172461	1.356268	0.99545	0.768357	1.155109	0.564859	1.144292	1.84537
0.540103	1.313008	0.976357	0.545804	0.686524	0.967351	0.864315	0.551084	1.150362	1.314253	0.983933	0.726201	0.971147	0.391104	0.876615	1.741261
0.414997	1.313008	0.951704	0.564395	0.868141	1.127953	0.954735	0.697367	1.129891	1.272236	0.961147	0.705094	1.013946	0.434192	0.992407	1.794196
0.867199	1.445356	1.195145	0.702378	0.741079	1.010339	0.910777	0.58937	1.191249	1.324281	1.007677	0.786395	0.948077	0.414595	0.823002	1.833611
0.568177	1.192656	1.035778	0.662381	0.813316	1.057633	0.976422	0.654378	1.307064	1.424073	1.040539	0.816466	1.210493	0.69988	1.249599	2.063564
0.514103	1.156975	1.034245	0.682842	0.847588	1.055307	1.037988	0.690966	1.488774	1.634903	1.175567	1.06753	1.085639	0.635826	0.926607	2.014014
0.284289	1.055876	0.926189	0.662381	0.974941	1.216796	1.116935	0.789744	1.578247	1.726147	1.255159	1.157006	1.127637	0.701819	1.070282	2.066297
0.111142	0.906063	0.900722	0.623276	0.854285	1.076932	1.04678	0.646514	1.406551	1.514584	1.117374	0.893455	1.169556	0.701819	1.065289	2.048431
-0.122317	0.842357	0.808209	0.583313	1.057775	1.262564	1.141408	0.775039	1.404801	1.527655	1.140728	0.957018	1.00783	0.613288	0.84987	1.957986
0.233192	1.066309	1.026244	0.682842	0.96815	1.216321	1.115314	0.707765	1.494219	1.612128	1.19824	1.023642	0.971147	0.590371	0.809354	1.867923
-0.045528	0.719083	0.78285	0.58532	0.9544	1.167354	1.072865	0.679176	1.428898	1.511367	1.139835	0.986029	1.157772	0.763468	1.122824	1.96987
0.260526	0.955058	0.982962	0.644464	0.975163	1.236249	1.113678	0.727653	1.317301	1.394634	1.083611	0.916187	0.996078	0.588647	0.85272	1.828325
-0.168304	0.815741	0.808093	0.565287	0.85779	1.099794	1.011129	0.591307	1.289969	1.404632	1.073247	0.890431	0.992057	0.567907	0.684559	1.794774
0.204779	1.125793	0.917145	0.662862	0.998994	1.28504	1.064843	0.704679	1.308782	1.469349	1.118728	0.979749	1.197574	0.741955	1.122824	1.933104
0.081129	1.101411	0.867038	0.662625	0.988357	1.263842	1.042135	0.684813	1.243871	1.407805	1.073247	0.914663	1.155109	0.698868	1.008509	1.899667
0.233192	1.066309	0.982962	0.663533	0.967726	1.263426	1.056745	0.701564	1.172461	1.333694	1.017003	0.820932	1.133353	0.654739	1.044932	1.953473
-0.260969	0.835717	0.715892	0.565287	0.940379	1.239213	1.054305	0.738253	1.23546	1.437077	1.074169	0.90696	1.175922	0.696757	1.096979	1.971215
-0.045528	0.989708	0.849045	0.624991	0.985024	1.28547	1.068115	0.755051	1.191249	1.372526	1.051821	0.861684	1.196717	0.67474	1.216624	2.024492
-0.478501	0.758322	0.573848	0.487085	0.909272	1.172064	1.004861	0.685846	1.30014	1.440288	1.073942	0.908511	1.176799	0.718229	1.216624	2.060054
-0.090752	1.129345	0.749355	0.584781	0.881929	1.10263	0.939259	0.620883	1.254159	1.408088	1.097828	0.902272	1.216645	0.696757	1.222211	2.042268
0.111142	1.221059	0.757654	0.565847	0.782583	1.03602	0.89184	0.549132	1.14545	1.317993	1.041231	0.790902	1.155109	0.697826	1.13898	2.007408
0.42022	1.528906	0.957394	0.605758	0.641932	0.873994	0.775024	0.386407	1.291377	1.478804	1.132646	0.984615	0.998038	0.564859	0.946112	1.863032
-0.122317	1.224138	0.523301	0.389934	0.676628	0.922018	0.740075	0.381017	1.121772	1.244358	0.927922	0.703671	0.857504	0.433823	0.737819	1.703831
-0.309346	1.242274	0.532753	0.333787	0.577987	0.808937	0.653141	0.263454	1.154082	1.264055	0.964608	0.801219	0.919886	0.520564	0.790594	1.736097
-0.920007	0.822936	0.166904	0.15886	0.673636	0.970279	0.695106	0.373648	1.068008	1.197097	0.908341	0.693552	0.942602	0.519668	0.904909	1.751216
0.00264	1.443992	0.591008	0.354561	0.670169	0.991211	0.707889	0.424183	0.936756	1.066586	0.818305	0.539646	1.162877	0.737294	1.174162	1.873444
-0.512596	0.92771	0.250664	0.17861	0.656705	0.969137	0.73608	0.488452	0.955444	1.130263	0.86384	0.581604	1.082796	0.670873	1.086209	1.873444
0.269638	1.559984	0.698722	0.451134	0.520426	0.85344	0.680532	0.395759	0.936756	1.078684	0.805963	0.476561	1.325413	0.84312	1.580901	2.046566
0.033956	1.281274	0.58235	0.371321	0.582268	0.857412	0.723301	0.472876	0.958598	1.167934	0.851023	0.519971	1.223188	0.736059	1.32445	1.962176
-0.044406	1.108407	0.532753	0.333398	0.426052	0.697755	0.682328	0.378278	1.192826	1.465687	1.066055	0.886294	0.920889	0.410459	0.972185	1.807008
-0.155052	0.946622	0.390009	0.312403	0.571776	0.879333	0.757327	0.511929	1.005509	1.241247	0.906528	0.542346	1.243039	0.71351	1.474841	2.051967
0.459147	1.392094	0.949436	0.547207	0.673636	0.924494	0.808615	0.611805	1.04934	1.327833	0.951194	0.587139	1.261358	0.715331	1.481058	2.071946
-0.249182	0.713075	0.481225	0.312403	0.581542	0.856127	0.794924	0.531494	1.280704	1.529824	1.133541	0.883035	0.913692	0.411954	0.871915	1.883218
0.473297	1.278734	0.899824	0.527788	0.639243	0.901288	0.832586	0.565805	1.203174	1.43703	1.086547	0.783363	1.281254	0.714731	1.424407	2.10819
-0.138536	0.738745	0.623598	0.371321	0.820101	0.994492	0.87366	0.69205	1.28961	1.581552	1.222968	0.958735	1.158643	0.628687	1.216624	2.021679
0.065696	1.021062	0.883524	0.488681	0.700604	0.901288	0.845438	0.598171	1.120134	1.353476	1.040539	0.631988	0.897042	0.367921	0.857577	1.829529
-0.419447	0.719083	0.623598	0.352347	0.680138	0.787793	0.792315	0.532466	1.211664	1.45322	1.107411	0.814966	1.139644	0.606765	1.236559	2.002533
-0.199782	0.948104	0.791118	0.430848	0.680138	0.833568	0.805162	0.516771	1.079359	1.269912	0.98342	0.568784	1.276498	0.73968	1.284992	2.057171
-0.29293	0.674178	0.556702	0.351954	0.721081	0.969713	0.869469	0.61688	1.225204	1.478804	1.131694	0.784881	0.989996	0.47914	0.720144	1.848414
-0.060324	0.941142	0.849045	0.47019	0.724554	0.901288	0.869469	0.649288	1.14215	1.395254	1.074616	0.742884	1.175038	0.652737	1.096979	2.004647
-0.276806	0.719083	0.640619	0.430517	0.74157	0.969137	0.894383	0.668069	1.396418	1.71024	1.26863	1.064742	1.334869	0.741397	1.259193	2.058621
-0.199782	0.937605	0.749355	0.527225	0.645511	0.852743	0.864315	0.640618	1.333766	1.652666	1.211341	0.960384	1.334066	0.807045	1.410885	2.129022
-0.716147	0.622753	0.505902	0.389541	0.751637	1.012742	0.968502	0.758209	1.272798	1.553069	1.153905	0.855537	1.391864	0.810007	1.301867	2.114934
-0.168304	0.892472	0.799339	0.547207	0.590051	0.82792	0.899582	0.646514	1.082557	1.279263	0.959521	0.551614	1.227784	0.700376	1.065289	2.027237
-0.385836	0.887719	0.665595	0.487418	0.666011	0.920721	0.967671	0.741386	1.170815	1.369357	1.060966	0.688141	1.476736	0.895522	1.531084	2.129781
-0.245414	0.944461	0.707405	0.50866	0.591265	0.787083	0.866909	0.604147	1.14215	1.318309	1.096544	0.72331	1.232288	0.699377	1.086619	1.973854
-0.260969	0.978615	0.632132	0.449568	0.595624	0.747636	0.84797	0.507998	1.072902	1.127188	1.005971	0.587139	1.214058	0.632218	1.050079	1.937674
-0.276806	1.154059	0.682459	0.430848	0.507239	0.679035	0.756451	0.392044	1.28428	1.369081	1.211504	0.932906	1.360946	0.739094	1.412225	1.987602
-0.402494	0.992215	0.447855	0.351954	0.443943	0.72657	0.750575	0.384459	1.196294	1.3119	1.154662	0.871819	1.23742	0.721476	1.128246	1.882596
0.298662	1.583192	0.807515	0.547207	0.471855	0.863787	0.707194	0.410521	1.022589	1.12103	0.949618	0.657251	0.999965	0.545069	0.785807	1.721976
-0.326056	1.051548	0.374281	0.351148	0.238277	0.706823	0.559325	0.22831	0.969235	1.017114	0.872315	0.608167	1.064773	0.565766	0.956626	1.774807
0.298662	1.397869	0.632386	0.469592	0.269621	0.799432	0.567873	0.265823	0.827959	0.870986	0.831649	0.595412	0.947357	0.542924	0.920452	1.792435
0.59515	1.458755	0.557886	0.411491	0.003219	0.533861	0.394642	0.036059	0.652644	0.669	0.674911	0.378428	0.670691	0.215973	0.415943	1.547834
0.364266	1.37358	0.425704	0.353113	0.060014	0.646855	0.360673	0.048612	0.49567	0.543608	0.555621	0.218567	0.715096	0.236694	0.586763	1.528464
-0.326056	0.960069	0.064703	0.122396	-0.128852	0.494412	0.214827	-0.09963	0.422021	0.480745	0.524852	0.256447	0.641346	0.170607	0.516417	1.421074
0.065696	1.185536	0.262423	0.143015	-0.250918	0.342405	0.083268	-0.216562	0.305287	0.409689	0.529532	0.243527	0.573145	0.082011	0.513647	1.312294
-0.402494	0.558783	-0.177665	-0.085762	-0.448095	0.144619	-0.025753	-0.376364	0.137477	0.226627	0.36333	0.032458	0.459676	-0.004416	0.418501	1.206944
-0.737746	0.431754	-0.239004	-0.158843	-0.605998	0.013387	-0.13633	-0.502343	0.147835	0.289475	0.377036	0.089499	0.360353	-0.195934	0.191878	1.07029
-0.811967	0.286499	-0.244839	-0.176616	-0.560781	0.01798	-0.131266	-0.491516	0.147835	0.316236	0.397525	0.136812	0.415757	-0.195711	0.19611	1.070965
-0.44558	0.583916	-0.084289	-0.08242	-0.571834	0.015253	-0.119017	-0.45776	0.146491	0.319021	0.397525	0.135568	0.535599	-0.132049	0.337638	1.139861
-0.938254	0.210289	-0.344252	-0.180219	-0.521543	0.14376	-0.060664	-0.390735	0.17138	0.415344	0.483811	0.246155	0.396515	-0.238371	0.19611	1.140927
-0.920469	0.336848	-0.280003	-0.12323	-0.309082	0.362113	0.097512	-0.151049	0.176717	0.386681	0.459861	0.16363	0.452053	-0.259441	0.20446	1.160505
-0.554083	0.527094	-0.054218	-0.009513	-0.300485	0.294114	0.093718	-0.164532	0.348773	0.588181	0.613083	0.340616	0.683273	-0.00306	0.624134	1.420629
-0.570926	0.635779	-0.015512	0.046753	-0.157274	0.407331	0.145082	-0.134213	0.292437	0.556622	0.600485	0.256447	0.604612	-0.067498	0.55847	1.385879
-0.168304	0.878848	0.238191	0.105165	-0.15905	0.404519	0.17945	-0.11566	0.25423	0.476152	0.577726	0.170924	0.641346	0.018388	0.450968	1.421952
-0.245414	0.833886	0.164509	0.067391	-0.173479	0.336382	0.152776	-0.178078	0.274014	0.47335	0.622292	0.234444	0.818577	0.167934	0.741038	1.52508
-0.260969	0.93074	0.188606	0.124776	-0.182185	0.272218	0.079427	-0.276339	0.256834	0.441453	0.586789	0.153641	0.818577	0.146746	0.649637	1.472816
-0.353394	0.885665	0.155968	0.04727	-0.0346	0.451162	0.120344	-0.167868	0.355756	0.599739	0.755336	0.475825	0.77862	0.146746	0.675027	1.454474
0.154086	1.08316	0.352751	0.163947	-0.274962	0.18213	-0.007053	-0.353775	0.355756	0.642908	0.732848	0.456473	0.956262	0.276019	0.827361	1.542009
-0.152989	0.968942	0.270829	0.124314	-0.162638	0.360634	0.057609	-0.2133	0.331883	0.637082	0.73368	0.475825	0.932287	0.256223	0.807325	1.579482
0.353432	1.173482	0.426268	0.240218	-0.219964	0.333966	0.09276	-0.176462	0.310802	0.683192	0.768012	0.473002	0.849084	0.213586	0.761301	1.617054
-0.353394	0.815741	0.082135	0.063794	-0.141539	0.42051	0.165178	-0.045448	0.271355	0.651629	0.700414	0.344596	0.727248	0.06339	0.591346	1.585252
-0.060324	1.125793	0.286699	0.179562	-0.137907	0.42129	0.176645	-0.012356	0.212055	0.557763	0.632737	0.174493	0.885434	0.236416	0.776117	1.779895
-0.309346	1.044712	0.219706	0.138572	0.01726	0.557269	0.278782	0.145508	0.215879	0.547356	0.597193	0.114112	1.128996	0.42929	1.387474	2.008087
0.111142	1.390536	0.343838	0.197872	0.039082	0.621709	0.35084	0.182651	0.444637	0.858959	0.832676	0.459224	0.964248	0.236694	1.086209	1.941425
0.049972	1.542131	0.358518	0.194908	-0.113175	0.375564	0.260889	0.038705	0.42902	0.783646	0.775082	0.356234	1.145536	0.452826	1.349719	2.064939
-0.044406	1.51018	0.334112	0.157326	-0.02716	0.399232	0.285809	0.053994	0.597939	0.952425	0.920749	0.595412	1.124933	0.431038	1.29321	2.047091
-0.301298	1.420103	0.08283	0.038147	0.087729	0.553923	0.359784	0.1817	0.515559	0.843149	0.864617	0.46331	1.105998	0.388279	1.318507	1.993601
0.717699	2.256919	0.640821	0.312831	-0.045264	0.374737	0.308932	0.05488	0.481314	0.75754	0.771484	0.277104	1.005549	0.323663	1.106345	1.922406
-0.206418	1.56846	0.190998	0.058054	0.021276	0.465446	0.334804	0.116897	0.816819	1.149969	1.054621	0.710023	0.762172	0.107524	0.666666	1.729372
0.827801	2.03556	0.541177	0.255277	-0.016685	0.416464	0.33118	0.089936	0.7985	1.134297	1.088157	0.754815	0.923849	0.259248	0.899831	1.798154
0.2718	1.892627	0.398761	0.175582	0.159926	0.598243	0.383013	0.215111	0.753925	1.124796	1.066249	0.683162	0.801535	0.194647	0.578374	1.710671
0.368216	1.972221	0.549042	0.272312	0.165643	0.640662	0.430468	0.268751	0.721641	1.023917	0.9389	0.498922	1.081913	0.455705	1.055078	1.903414
0.175643	1.601037	0.290365	0.135291	0.201923	0.638618	0.439475	0.30528	0.866357	1.225717	1.16649	0.780309	1.243809	0.651694	1.318507	2.043667
0.495859	1.830802	0.624113	0.331346	0.374855	0.683879	0.665551	0.255336	1.229636	0.899954	0.613384	0.482786	0.902743	0.218408	1.164801	1.594919
0.854242	1.674377	0.665595	0.114948	0.459414	0.793738	0.751426	0.299381	1.132133	0.490815	0.272396	0.155953	0.871206	0.190118	1.164801	1.518253
0.335512	1.264693	0.489931	-0.231472	0.522958	0.926249	0.882344	0.394171	1.044471	0.455171	0.402027	0.311885	0.988998	0.340944	1.436873	1.728614
0.045478	0.805828	0.221227	-0.520994	0.48326	0.813667	0.814519	0.229403	0.872826	0.324585	0.432389	0.270006	1.002577	0.454739	1.355716	1.949324
0.204084	0.782577	0.251289	-0.519769	0.410466	0.720243	0.810963	0.116897	0.869789	0.355873	0.565324	0.375854	1.102969	0.518853	1.618782	2.09456
0.659038	1.064085	0.513	-0.390691	0.625776	0.947677	0.90218	0.17593	1.0412	0.629893	0.842545	0.727842	1.061122	0.458721	1.481058	2.13812
0.643631	1.078755	0.51988	-0.337208	0.754527	1.084929	0.956402	0.220482	1.128755	0.721569	0.953162	0.774136	1.132862	0.61403	1.396747	2.342381
1.104937	1.308288	0.765974	-0.226986	0.805882	1.128894	0.941803	0.221485	1.172613	0.853637	1.110292	0.929601	1.113957	0.507377	1.39099	2.327906
0.756506	1.309486	0.713846	-0.173616	0.7355	1.037647	0.904743	0.139754	1.110197	0.844446	1.13246	0.907127	1.210919	0.59573	1.523648	2.422045
0.674143	1.13065	0.603262	-0.229607	0.678104	0.944677	0.825633	0.06291	0.938312	0.622473	0.985175	0.665286	0.951015	0.338613	1.165162	2.262635
0.513896	1.167464	0.600943	-0.176378	0.744861	0.991211	0.828269	0.108465	0.936756	0.730168	1.019393	0.686157	0.856702	0.250793	1.118079	2.169984
1.176304	1.436428	0.917974	-0.045592	0.737078	0.967956	0.790556	0.078105	0.7625	0.523681	0.827168	0.401929	0.757164	0.1662	1.060258	2.081403
0.546162	1.025904	0.566938	-0.194863	0.794486	1.038684	0.768395	0.106559	0.865196	0.687051	0.885168	0.552282	0.621916	0.015858	0.903236	1.954784
0.994291	1.242029	0.790505	-0.06388	0.723903	0.969713	0.742751	0.061065	0.755175	0.579486	0.830314	0.504995	0.597062	-0.025543	0.858957	1.939568
0.980565	1.257144	0.849802	-0.064318	0.602369	0.744192	0.641279	-0.036322	0.815649	0.724177	0.842545	0.611836	0.681258	0.100924	1.154803	2.077848
0.854242	1.264693	0.76412	-0.083809	0.506948	0.675281	0.562803	-0.1123	0.773853	0.665512	0.753089	0.481405	0.57982	0.016692	1.075235	2.062871
0.725924	1.21237	0.591768	-0.103465	0.594445	0.834229	0.640358	0.016372	0.75665	0.65866	0.717536	0.467345	0.839922	0.207495	1.497771	2.257091
0.966551	1.317085	0.738959	-0.046714	0.560662	0.7449	0.592078	-0.049754	0.736438	0.661587	0.706388	0.445095	0.858526	0.250793	1.535506	2.314123
1.078301	1.384925	0.772964	0.009208	0.64804	0.813021	0.618504	0.030684	0.860558	0.797972	0.831387	0.634086	0.739643	0.101603	1.381979	2.261855
0.897087	1.41466	0.713846	-0.027704	0.611369	0.810338	0.577455	0.017262	0.841932	0.720503	0.773921	0.509147	0.818577	0.208316	1.541383	2.404896
0.546162	1.339856	0.576095	-0.14027	0.58646	0.764538	0.552907	-0.030201	0.88539	0.782383	0.80713	0.57456	0.676077	0.124326	1.334627	2.354186
0.643631	1.445827	0.576095	-0.102891	0.64804	0.813667	0.543946	0.01278	0.927315	0.862902	0.897398	0.681656	0.781472	0.186486	1.619119	2.402303
0.70347	1.543893	0.629981	-0.082822	0.58646	0.765262	0.515667	-0.047161	0.862109	0.801	0.908089	0.705495	0.77862	0.230178	1.503626	2.38432
0.643631	1.544773	0.56038	-0.102613	0.674168	0.809642	0.515667	0.002025	0.820223	0.80705	0.952442	0.753284	0.998685	0.400763	1.886978	2.506657
1.176304	1.804152	0.756564	0.00941	0.782954	0.901288	0.553852	0.115045	0.818704	0.850403	0.985655	0.82211	1.058906	0.507377	2.001003	2.539792
1.162828	1.820268	0.696078	0.046192	0.77519	0.922652	0.577455	0.16831	0.818704	0.893808	1.031088	0.908768	0.917135	0.423912	1.714847	2.452682
1.583134	2.009667	0.901119	0.139863	0.930263	1.083009	0.629427	0.313676	0.73789	0.822134	0.973682	0.805851	0.937551	0.510354	1.79781	2.520837
1.36019	1.712321	0.696078	0.046192	1.025835	1.152907	0.656784	0.376815	0.903989	1.002552	1.065259	1.02135	0.978325	0.509772	1.848335	2.500943
0.937644	1.65071	0.662105	-0.009581	0.82498	0.924494	0.551957	0.201734	0.691681	0.775717	0.872876	0.736933	0.838092	0.403347	1.555443	2.378192
0.204084	1.121104	0.320372	-0.195508	0.733164	0.856127	0.500045	0.138615	0.690245	0.713654	0.850172	0.760889	0.9384	0.553654	1.73402	2.482039
0.854242	1.422361	0.603262	-0.027281	0.769687	0.881768	0.47655	0.119653	0.58229	0.602623	0.737611	0.584383	0.799073	0.424951	1.549404	2.375507
0.980565	1.317085	0.569418	-0.045592	0.832634	0.994492	0.552907	0.184544	0.668628	0.689065	0.850172	0.741404	0.779579	0.360649	1.42843	2.321007
1.287499	1.376072	0.731417	0.029006	0.74873	0.903705	0.52839	0.148344	0.602466	0.618419	0.816858	0.715983	0.798125	0.382716	1.485954	2.321883
1.300141	1.323658	0.722656	0.029006	0.761959	0.948247	0.579331	0.165488	0.624031	0.639996	0.816858	0.671134	0.958778	0.531402	1.809803	2.459313
