fnirSoft:	Exported Text File
Version:	4.2
ExportDate:	12/18/2023 11:14:37 AM
VariableInfo
Name:	oxygraph9.oxy.Block1
Size:	2118 x 16
Type:	Numeric
Content:	Hemoglobin
Date:	12/18/2023 11:14:26 AM
Notes:	Oxygenation (difference Hb) concentration changes data saved by Oxygraph from file C:\Users\Anette Johansson\Documents\COBI Studio Data\friska kontroller\2011K\MALIN_2011K_1_04260836.oxy
Labels:	OXY	DATA
VariableData
Hemoglobin	Hemoglobin	Hemoglobin	Hemoglobin	Hemoglobin	Hemoglobin	Hemoglobin	Hemoglobin	Hemoglobin	Hemoglobin	Hemoglobin	Hemoglobin	Hemoglobin	Hemoglobin	Hemoglobin	Hemoglobin
Optode1	Optode2	Optode3	Optode4	Optode5	Optode6	Optode7	Optode8	Optode9	Optode10	Optode11	Optode12	Optode13	Optode14	Optode15	Optode16
-0.44731	-0.072736	-0.196877	-0.212922	-0.313316	-0.042315	0.119164	-0.330777	0.00790800000000003	-0.105047	0.024876	-0.34632	0.590022	0.182449	0.643782	1.14432
-0.545012	0.177107	0.260576	-0.059479	-0.254837	0.043087	0.169585	-0.270192	0.1135	-0.05786	0.125402	-0.160864	0.411762	-0.021974	0.421363	1.071277
-0.514694	-0.406178	-0.099183	-0.31836	-0.0988289999999999	0.158648	0.304201	-0.045247	0.119471	-0.086284	0.140402	-0.183877	0.615734	0.149219	0.62448	1.191089
-0.990262	-0.619354	-0.240943	-0.316571	-0.371856	-0.18347	0.085265	-0.391378	0.309129	0.215867	0.397839	0.221701	1.150584	0.634766	1.434899	1.570228
-0.734377	-0.495092	-0.064438	-0.289679	-0.378509	-0.125723	0.152255	-0.309172	0.542477	0.525725	0.654367	0.626532	0.845769	0.398617	0.808981	1.406655
-0.16169	-0.00948100000000002	0.297412	-0.082383	-0.0404110000000001	0.216531	0.303508	-0.001911	0.181405	0.064836	0.356399	0.14704	0.667122	0.296504	0.58445	1.344251
0.277157	0.090777	0.419763	-0.00438500000000003	-0.241885	-0.067909	0.100177	-0.261663	0.209401	0.093294	0.328058	0.107814	0.513767	0.062372	-0.052233	1.159453
0.303315	0.145616	0.243418	0.069701	-0.202717	-0.00885100000000005	0.164964	-0.170631	0.408682	0.328252	0.542203	0.439791	0.564876	0.103906	0.522934	1.212787
-0.830633	-0.115041	0.015069	-0.111043	-0.150461	0.104654	0.21556	-0.127198	0.480066	0.34667	0.585806	0.579906	0.974084	0.517818	1.111933	1.495271
-0.289803	0.168169	0.226226	-0.033287	-0.30066	-0.065688	0.112768	-0.218377	0.458393	0.403601	0.542984	0.446565	0.822051	0.420094	0.849984	1.432952
-0.672114	0.168169	-0.011331	-0.111043	-0.241817	0.078209	0.161932	-0.153067	0.374455	0.31823	0.51392	0.417174	0.846424	0.378425	1.03024	1.419752
-1.084504	-0.175989	-0.248726	-0.214995	0.057683	0.418043	0.364739	0.124963	0.480066	0.450438	0.656875	0.668239	0.949268	0.546597	1.071069	1.524387
0.456191	0.580618	0.486908	0.222752	-0.091801	0.248381	0.279362	-0.00941499999999995	0.365169	0.301389	0.430432	0.326403	0.846424	0.435897	0.725705	1.312348
-0.387926	0.398004	0.128978	-0.00708199999999998	-0.313638	0.076933	0.244607	-0.144212	0.43395	0.388978	0.388938	0.310336	0.872114	0.493436	0.907959	1.355477
-0.076993	0.466291	0.146339	0.017333	-0.398498	-0.122584	0.124776	-0.218293	0.299692	0.16149	0.259364	0.087751	0.744775	0.34217	0.482208	1.171833
-0.514694	0.421483	-0.063644	-0.059479	-0.365781	-0.066804	0.124776	-0.235747	0.455711	0.31317	0.415171	0.349141	0.616383	0.284492	0.217604	1.031281
-0.514694	0.727857	0.338574	0.121126	-0.313638	0.018944	0.174918	-0.148253	0.43395	0.304786	0.387521	0.29696	0.359829	-0.02381	-0.065808	0.911313
-1.268407	-0.021328	-0.325298	-0.242422	-0.267965	0.078209	0.258604	-0.117352	0.524895	0.419728	0.445718	0.437528	0.027034	-0.33148	-0.817744	0.688753
0.104247	0.638233	0.32886	0.195544	-0.241817	0.050427	0.241174	-0.112832	0.509625	0.364199	0.375086	0.310336	0.309396	-0.092496	-0.041005	0.870857
-0.42429	0.29013	0.093894	0.014701	-0.235091	-0.061099	0.237807	-0.160709	0.505553	0.31317	0.411632	0.342441	0.129117	-0.398917	-0.547827	0.661725
-0.299484	0.498332	0.319362	-0.0154280000000001	-0.220472	0.082119	0.334698	-0.081746	0.402419	0.100123	0.433609	0.179362	0.203897	-0.217385	-0.59376	0.755413
-1.392891	0.04698	-0.087512	-0.226663	-0.45947	-0.207541	0.243877	-0.266327	0.282014	0.0591090000000001	0.400849	0.036712	0.176623	-0.281104	-0.490559	0.752912
-0.088584	0.678211	0.74435	0.0696209999999999	-0.445494	-0.121512	0.22138	-0.353822	0.344448	-0.00635700000000006	0.44059	0.137994	0.46333	0.029331	0.159585	0.962199
-0.97744	-0.079434	0.070709	-0.209357	-0.363227	-0.006468	0.233932	-0.244503	0.396949	0.166419	0.51155	0.263844	0.490358	0.235988	0.522826	1.165128
-0.153762	0.322474	0.613046	0.036124	-0.416768	-0.062266	0.212217	-0.283779	0.439783	0.183824	0.627893	0.296086	0.123194	-0.118714	-0.240768	0.838632
-0.610594	-0.155462	0.0282669999999999	-0.186049	-0.209329	0.190323	0.23677	-0.135986	0.570825	0.327725	0.71844	0.488025	0.540712	0.276681	0.403177	1.16235
0.0349470000000001	0.279226	0.42839	0.0896639999999999	-0.71333	-0.238421	0.042299	-0.477662	0.598281	0.444676	0.803463	0.671924	0.488183	0.058631	0.762	1.082499
-0.764931	-0.340105	-0.0243720000000001	-0.158277	-0.188983	0.438978	0.328814	0.0311929999999999	0.463985	0.310432	0.650255	0.525969	-0.375567	-0.735481	-0.741311	0.530731
0.902375	0.51191	1.011111	0.46616	-0.500131	-0.108706	0.175086	-0.318549	1.767813	2.177583	2.241467	3.063545	-1.404602	-1.51944	-3.022402	-0.025833
0.878532	0.428128	0.819473	0.398068	-0.048482	0.399524	0.4658	0.076952	1.721012	2.255376	2.204177	3.050274	-1.067984	-1.296057	-2.534119	0.174716
1.767113	0.616146	1.076719	0.60582	0.219842	0.715525	0.50235	0.328288	1.086991	1.379343	1.435229	1.919046	-0.321708	-0.6195	-0.937666	0.688753
0.608025	0.127977	0.603135	0.363571	-0.189422	0.352385	0.340097	-0.020672	0.588017	0.703878	0.866931	1.030875	0.108636	-0.196135	-0.502146	1.000625
0.303315	0.051464	0.275969	0.188513	-0.278364	0.322108	0.179472	-0.131467	0.328037	0.353588	0.664731	0.72423	-0.243917	-0.415765	-0.985499	0.802456
-1.37157	-0.682547	-0.461999	-0.142928	-0.055191	0.580145	0.24755	0.085637	0.222803	0.114135	0.393731	0.350852	-0.089218	-0.341056	-0.535799	0.878577
0.149384	0.285947	0.146021	0.242474	-0.437603	0.127179	0.00274099999999999	-0.297333	0.062066	-0.107371	0.264537	0.212279	0.263575	0.068922	-0.034133	1.129073
-1.210941	-0.525297	-0.591367	-0.168214	-0.207833	0.496793	0.152453	-0.067486	-0.065052	-0.273738	0.080045	-0.07522	0.313993	0.125652	0.106029	1.167917
0.049444	0.279861	0.077041	0.139464	-0.481567	0.154734	-0.0113810000000001	-0.301383	0.034327	0.021947	0.334728	0.315361	0.540527	0.357023	0.544653	1.286819
-0.417575	-0.085623	-0.123075	0.118185	-0.283974	0.410096	0.0700729999999999	-0.156909	-0.0211020000000001	-0.144354	0.221324	0.154359	0.364955	0.0858289999999999	0.227271	1.140201
-0.672114	-0.047051	-0.166352	0.0669	-0.283974	0.469508	0.165918	-0.04201	-0.24217	-0.478825	-0.089957	-0.288789	0.8161	0.575572	1.098366	1.528046
-1.210941	-0.781925	-0.628783	-0.113341	-0.532236	0.18489	0.0501609999999999	-0.272793	-0.114806	-0.153693	0.223649	0.160667	0.364084	0.012259	0.066469	1.131851
0.149384	0.232033	0.137405	0.251163	-0.430847	0.242671	0.081531	-0.157549	-0.053554	-0.22817	0.153743	0.08004	0.715763	0.348918	0.900241	1.448181
-0.957734	-0.461196	-0.387072	0.046317	-0.144472	0.476172	0.209344	0.04445	0.019655	-0.116141	0.270701	0.260566	0.338729	-0.016048	0.084742	1.168239
-0.00561300000000003	0.200113	0.355548	0.358746	-0.515664	0.076933	0.092252	-0.205181	-0.084996	-0.294109	0.059444	-0.12568	0.464249	0.097279	0.283518	1.241187
-0.44731	-0.276069	-0.055277	0.103	-0.150928	0.359986	0.208511	0.00578999999999996	-0.101339	-0.294109	0.117589	-0.044469	0.363023	0.080426	0.201748	1.230527
-0.575422	-0.25847	-0.160954	0.12942	-0.543035	0.049172	0.1076	-0.179327	-0.022961	-0.228339	0.230923	0.092558	0.66572	0.296243	0.46276	1.35953
-1.055661	-0.276069	-0.365512	0.00226200000000001	-0.170529	0.422975	0.304521	0.066787	-0.027257	-0.181245	0.248023	0.088703	0.389148	0.012259	0.042004	1.112496
-1.441019	-0.461196	-0.328953	0.025772	-0.228471	0.393832	0.289003	0.036222	-0.150557	-0.369601	0.019527	-0.229996	0.514794	0.178515	0.323371	1.218771
-0.894452	-0.361643	-0.303147	0.052206	-0.312188	0.191715	0.206853	-0.0328970000000001	-0.257588	-0.482466	-0.053296	-0.34632	0.439317	0.150141	0.243698	1.232419
-0.636519	0.056727	-0.108624	0.156967	-0.402651	0.105952	0.157234	-0.153415	-0.134119	-0.265917	0.104748	-0.079753	0.690763	0.284093	0.842099	1.310063
-1.312907	-0.562839	-0.435225	-0.027975	-0.209236	0.3356	0.223116	-0.0328970000000001	-0.291514	-0.51064	-0.067848	-0.34632	0.162604	-0.121922	-0.174643	1.006649
-1.022904	-0.226947	-0.328953	0.049216	-0.344531	0.191715	0.241001	-0.0372760000000001	-0.045137	-0.181425	0.174598	0.069795	0.364367	0.061339	0.066469	1.126305
-1.218016	-0.442832	-0.560354	-0.053446	-0.234995	0.3356	0.272727	0.113622	-0.095465	-0.190718	0.117589	-0.056836	0.189458	-0.108056	-0.030399	1.012802
0.484011	0.488891	0.164852	0.33615	-0.138365	0.447099	0.32308	0.207937	-0.196257	-0.360017	-0.097855	-0.323177	0.113614	-0.157334	0.048367	1.034931
0.250951	0.046529	0.067716	0.332398	-0.273318	0.304992	0.223116	0.010206	-0.168132	-0.350694	-0.054265	-0.265084	0.515219	0.195108	0.584149	1.270378
0.379745	0.127977	0.111582	0.386406	-0.215436	0.361546	0.355625	0.147754	0.073535	-0.115147	0.133302	0.036712	0.287927	0.019778	0.124432	1.112389
-0.218508	-0.025433	0.032655	0.285763	-0.112647	0.422975	0.35343	0.178435	0.11403	0.00797300000000001	0.164271	0.078566	0.414001	0.019778	0.264593	1.092905
-0.47713	0.013064	-0.011331	0.232879	-0.305583	0.249842	0.320819	0.07046	0.208586	0.035539	0.263919	0.250878	0.0102100000000001	-0.249294	-0.337835	0.947923
-0.797039	-0.322528	-0.240943	0.156967	-0.356923	0.16132	0.256457	-0.041642	0.000967999999999969	-0.171744	0.149069	-0.021556	0.187205	-0.171364	-0.236284	0.987094
-0.605925	-0.145737	-0.055277	0.231712	-0.305583	0.191715	0.32157	0.057109	-0.021255	-0.133894	0.164886	-0.044469	0.058752	-0.270646	-0.707439	0.866719
0.40527	0.166091	0.321565	0.358746	-0.472983	0.0467	0.190593	-0.131859	0.029208	-0.143453	0.1795	0.00756899999999999	0.237373	-0.171364	-0.156936	0.987094
-0.387926	-0.328438	-0.063644	0.175677	-0.370248	0.075668	0.157234	-0.088947	0.035276	-0.048823	0.223365	0.088703	0.312724	-0.143024	-0.117214	1.02889
-0.641132	-0.387888	-0.15102	0.123138	-0.402651	-0.00885100000000005	0.122978	-0.123291	0.104205	-0.038414	0.227338	0.09135	0.71602	0.34089	0.663148	1.32353
-0.830633	-0.406178	-0.143049	0.125191	-0.57049	-0.152593	0.040781	-0.282381	-0.015233	-0.133471	0.139326	-0.061208	0.362775	0.023564	-0.016077	1.070655
-1.084504	-0.584746	-0.380085	-0.030677	-0.486547	0.018944	0.156377	-0.118989	0.126385	0.056001	0.197982	-0.02575	0.312724	-0.118303	0.066469	1.001287
-0.957734	-0.564461	-0.398425	0.022867	-0.312188	0.04793	0.171804	-0.015747	-0.00918800000000003	-0.076607	0.153983	-0.090386	0.338147	-0.0936150000000001	0.166758	1.084664
0.456191	-0.034423	0.085192	0.306064	-0.298982	0.044278	0.223116	0.0356	-0.02541	-0.132985	0.141196	-0.130258	0.059812	-0.334265	-0.23161	0.959554
-0.893019	-0.684044	-0.212636	0.072594	-0.164122	-0.070078	0.433046	-0.174734	0.084587	-0.143765	0.290431	-0.131791	0.187205	-0.198696	-0.0480740000000001	1.052599
-1.177208	-0.197725	-0.336338	0.196589	-0.30066	0.021372	0.420854	-0.080302	0.485936	0.042297	0.370222	0.218656	0.209964	0.0622130000000001	-0.13505	1.267021
-1.210941	0.075505	-0.391239	0.346647	-0.668881	-0.180536	0.245301	-0.144771	0.433055	0.071088	0.271334	0.121595	0.337327	0.086433	0.045084	1.256185
-0.076993	0.365015	0.050203	0.496828	-0.603902	-0.065688	0.290188	-0.0372760000000001	0.164124	-0.134785	0.140402	-0.10417	0.18396	-0.00708599999999993	-0.240768	1.209497
0.303315	0.392786	0.059175	0.62708	-0.763368	-0.120428	0.200768	-0.106013	0.266462	0.136195	0.322851	0.176991	-0.070701	-0.268959	-0.730771	0.984419
1.415027	0.838578	0.480705	0.805239	-0.784487	-0.05992	0.129066	-0.1318	0.266462	0.202257	0.422621	0.35738	0.131758	-0.0906210000000001	-0.553576	1.081706
0.71073	0.705258	0.314478	0.757683	-0.698138	-0.030742	0.145978	-0.010824	0.151245	0.137138	0.337289	0.202404	0.513684	0.251739	-0.087539	1.350386
1.415027	0.898101	0.5856	0.913153	-0.904478	-0.201407	0.023848	-0.179341	0.087403	0.043659	0.27956	0.173348	0.257247	0.112786	-0.546727	1.239457
0.81509	0.750585	0.341679	0.819896	-0.639333	0.20944	0.227478	0.112381	0.215317	0.281338	0.411632	0.403723	0.59092	0.484695	0.049488	1.510902
0.791654	0.736319	0.369049	0.900799	-0.773612	0.039819	0.156842	0.091799	0.135294	0.150257	0.27007	0.172851	0.56551	0.531116	-0.034847	1.566209
0.638367	0.661793	0.396588	0.879678	-0.666911	0.215784	0.242062	0.228228	0.308532	0.436087	0.415889	0.437528	0.53971	0.448941	0.110713	1.462196
0.224695	0.503937	0.095262	0.803662	-0.539963	0.393805	0.378727	0.370187	0.410871	0.587556	0.544553	0.593786	0.48815	0.309091	-0.097969	1.403512
-0.218508	0.149808	-0.073408	0.67605	-0.137843	0.830015	0.654163	0.704091	0.468755	0.72073	0.631955	0.682334	0.281141	0.223058	-0.500655	1.357486
0.484011	0.564126	0.424298	0.805389	-0.331544	0.572483	0.532154	0.535246	0.366416	0.446347	0.431895	0.430719	0.798332	0.569025	0.547839	1.658565
0.068559	0.451132	0.19428	0.807127	-0.150505	0.713064	0.653845	0.704091	0.526708	0.616267	0.58987	0.593786	0.772407	0.564502	0.505985	1.632175
0.638367	0.842813	0.452181	0.883271	-0.351939	0.479206	0.499047	0.487852	0.446577	0.569236	0.548536	0.51916	0.539909	0.34217	0.088394	1.452427
0.328572	0.572189	0.283841	0.831939	-0.600374	0.212584	0.414897	0.240658	0.417609	0.577179	0.519349	0.541747	0.668197	0.489056	0.401178	1.608409
0.095557	0.352788	0.104886	0.752331	-0.278623	0.530832	0.553263	0.558023	0.55718	0.725629	0.703147	0.79432	0.153731	-0.060133	-0.473781	1.192603
-0.926523	0.216076	-0.019665	0.624579	-0.104643	0.676945	0.640106	0.613924	0.390795	0.507434	0.487886	0.417174	0.307975	0.136573	-0.496581	1.325707
0.354179	0.69355	0.23904	0.778853	-0.526448	0.23892	0.452886	0.316814	0.507982	0.68404	0.656875	0.647277	0.513704	0.288205	0.00654199999999999	1.426596
-0.088676	0.641643	0.266695	0.755703	-0.112567	0.700284	0.60757	0.637703	0.435065	0.525725	0.430432	0.306408	0.411241	0.173806	0.06936	1.381249
0.89838	0.740329	0.480237	0.934556	-0.372727	0.381331	0.488287	0.45547	0.26265	0.401794	0.386116	0.241204	0.436782	0.235044	-0.015015	1.517417
0.198391	0.481759	0.221811	0.754011	-0.259202	0.495637	0.488287	0.53813	0.39304	0.616853	0.484873	0.397033	0.99931	0.68758	0.794026	1.796175
-0.060926	0.458798	0.23904	0.777156	-0.345985	0.409051	0.522679	0.477359	0.501256	0.702173	0.556734	0.478164	0.513683	0.173806	-0.202821	1.429785
-0.47713	0.238426	-0.171659	0.595011	-0.399453	0.35018	0.471816	0.423895	0.523264	0.709949	0.527678	0.529964	0.923122	0.610562	0.732819	1.773421
0.354179	0.889728	0.496982	0.930871	-0.332872	0.376198	0.472309	0.474815	0.205315	0.335055	0.25746	0.049335	0.462522	0.169818	-0.097969	1.446086
-0.00561300000000003	-0.072736	0.23904	0.378784	0.044691	0.611682	1.016556	0.527885	0.333186	0.466352	0.580337	0.360338	0.717792	0.517748	0.606573	1.716116
1.117106	0.967353	0.725638	0.943554	-0.28284	0.523241	0.860118	0.520639	0.202346	0.654268	0.733262	0.603379	0.94715	0.693561	0.871711	1.763508
0.303315	0.639271	0.273392	0.834196	-0.451528	0.584131	0.756325	0.667158	0.317563	0.813123	0.728693	0.69514	0.871063	0.650126	0.74839	1.754306
-0.358361	0.559722	0.201533	0.903764	-0.567086	0.49936	0.618162	0.535061	0.237632	0.640168	0.63338	0.547733	0.768942	0.502015	0.625383	1.703544
-0.957734	0.470666	-0.091215	0.781391	-0.68265	0.469826	0.532937	0.397821	0.410871	0.774483	0.709041	0.788258	0.769693	0.632402	0.359406	1.78781
0.71073	1.084453	0.59161	1.184567	-0.621456	0.443946	0.533334	0.433773	0.366416	0.751268	0.599537	0.67665	0.846424	0.641173	0.58537	1.801529
-0.575422	0.380805	-0.26097	0.864453	-0.533152	0.562408	0.568021	0.486899	0.18361	0.539759	0.444979	0.342441	1.384355	1.175643	1.427696	2.230195
0.558526	0.953492	0.441141	1.191806	-0.533152	0.619706	0.516598	0.491756	0.24814	0.59867	0.518564	0.51916	0.89903	0.701201	0.483528	1.810226
1.117106	0.917173	0.485735	1.271336	-0.458163	0.536678	0.482348	0.479678	0.569558	0.862735	0.747827	0.867715	0.898617	0.648239	0.524987	1.794441
0.250951	0.830096	0.283841	1.152858	-0.594162	0.45329	0.481479	0.411724	0.693124	1.034232	0.851152	1.023192	1.028169	0.878811	0.816202	1.931899
-0.060926	0.467606	0.034757	1.05778	-0.368552	0.715246	0.550486	0.53813	0.319628	0.593056	0.537964	0.569607	1.001276	0.81635	0.732819	1.82089
1.050971	1.07711	0.520198	1.36773	-0.368552	0.715246	0.585173	0.572008	0.503027	0.808591	0.666337	0.748614	0.642795	0.473404	0.088394	1.674564
0.40527	0.526909	0.232297	1.110007	-0.37508	0.630071	0.533334	0.433592	0.532169	0.780017	0.666337	0.726152	0.642424	0.386966	0.151321	1.582969
0.791654	0.824525	0.520198	1.289156	-0.245967	0.710896	0.551658	0.540273	0.312901	0.507434	0.43712	0.369387	0.822399	0.575392	0.422385	1.709947
2.038327	1.292994	0.886077	1.492244	-0.347626	0.687601	0.533734	0.51131	0.312901	0.535958	0.4818	0.435378	0.822399	0.628503	0.609727	1.794441
1.353001	1.136927	0.672534	1.442049	-0.252363	0.797946	0.53495	0.523346	0.388658	0.616853	0.620733	0.645776	0.744518	0.648239	0.588003	1.810226
0.686638	0.861358	0.384667	1.287129	-0.102455	0.855184	0.621955	0.683272	0.410871	0.645276	0.593182	0.600762	0.872859	0.677001	0.816202	1.875214
-0.00561300000000003	0.7876	0.27739	1.186516	-0.191104	0.887312	0.604875	0.688306	0.397463	0.606624	0.57692	0.638777	0.488068	0.263686	-0.015015	1.546753
0.838503	1.113542	0.553519	1.313277	-0.49876	0.536678	0.383913	0.380247	0.441757	0.728032	0.678332	0.779112	0.436967	0.263686	0.028042	1.624455
0.533722	0.893598	0.412922	1.321574	-0.567086	0.417997	0.421534	0.409446	0.44382	0.676765	0.69031	0.780109	0.845454	0.590767	0.627976	1.852364
0.921139	0.91339	0.350704	1.327923	-0.452136	0.560438	0.509061	0.515859	0.183058	0.330697	0.434114	0.403723	0.71798	0.513423	0.524987	1.828058
0.484011	0.726322	0.117689	1.20439	-0.371617	0.613666	0.493699	0.561575	0.195894	0.433239	0.478674	0.3811	0.769435	0.551045	0.71093	1.835274
0.095557	0.519669	-0.045662	1.125258	-0.607601	0.471673	0.408479	0.407302	0.30191	0.464923	0.413147	0.385347	0.718381	0.440226	0.338713	1.746914
0.791654	0.862611	0.24302	1.382862	-0.465881	0.676945	0.492689	0.498966	0.504565	0.681543	0.599973	0.623284	0.692568	0.358188	0.50381	1.743375
1.890919	1.280235	0.779405	1.635403	-0.627718	0.381331	0.341216	0.269638	0.431155	0.658057	0.513534	0.505399	0.769184	0.444574	0.647891	1.685021
1.873029	0.873097	0.672534	1.570521	-0.76217	0.179978	0.257934	0.170513	0.54741	0.728415	0.514352	0.512267	0.539191	0.189934	0.194304	1.367489
2.29834	0.897265	0.795595	1.553656	-0.600374	0.351869	0.294075	0.209253	0.451649	0.655468	0.415455	0.473895	0.793782	0.325215	0.689244	1.468718
1.181152	-0.042644	0.27739	1.172059	-0.526448	0.376198	0.330739	0.260353	0.344146	0.491253	0.369134	0.342441	0.564648	0.128574	0.276764	1.354737
0.89838	0.267571	0.384667	1.145406	-0.714435	0.206351	0.230035	0.165937	0.279616	0.376921	0.324453	0.306408	0.615464	0.173806	0.421211	1.393903
1.028913	-0.036427	0.232297	1.067529	-0.647077	0.203316	0.21556	0.178435	0.250717	0.499345	0.425523	0.387801	0.742584	0.259579	0.400717	1.436198
1.742497	0.59398	0.66019	1.218973	-0.58673	0.315895	0.268252	0.251118	0.055243	0.262859	0.29587	0.195666	0.64098	0.173806	0.421211	1.410264
0.354179	-0.240001	-0.225782	0.805389	-0.305469	0.519532	0.452851	0.535061	0.237632	0.478928	0.453288	0.374421	0.386468	-0.025745	0.070879	1.335945
1.311683	0.743446	0.688924	1.141278	-0.593549	0.200336	0.252383	0.24652	0.020146	0.196018	0.20874	-0.038252	0.894969	0.401919	1.014341	1.695064
0.068559	-0.319665	-0.28891	0.674446	-0.365687	0.459043	0.38642	0.465369	0.077686	0.299796	0.324453	0.124246	0.971918	0.560065	1.239002	1.820729
1.44257	0.781552	0.49174	1.059624	-0.613472	0.195965	0.287647	0.271272	-0.053616	0.214526	0.253303	0.043012	0.768484	0.312483	0.830569	1.643149
0.250951	-0.700569	-0.360433	0.207713	-0.438272	0.278932	0.410743	0.351159	0.135826	0.459689	0.997839	0.527624	0.258203	-0.220658	0.216347	1.501473
0.791654	0.144365	0.283841	0.46616	-0.764791	0.083448	0.237142	0.163777	0.187437	0.476192	1.027229	0.520966	0.257953	-0.224097	0.134723	1.501473
0.224695	0.225982	-0.126942	0.536773	-0.465434	0.309583	0.343667	0.38483	0.132233	0.402171	0.867773	0.485399	0.206669	-0.171381	-0.049753	1.401479
0.068559	0.451132	-0.019665	0.735014	-0.49959	0.395468	0.346792	0.341974	0.039116	0.309907	0.667218	0.199593	0.411329	-0.087052	0.154394	1.478597
-0.318858	-0.042305	-0.457597	0.61129	-0.641421	0.283499	0.281399	0.265411	-0.018561	0.217494	0.523329	0.102748	0.488068	-0.051658	0.297575	1.520691
0.768199	0.985202	0.23904	1.013176	-0.654639	0.311141	0.316709	0.282292	-0.127547	-0.00474200000000002	0.222715	-0.317705	0.820443	0.187331	0.852357	1.676765
-0.605925	0.029441	-0.476134	0.694225	-0.378187	0.548923	0.433265	0.480068	0.010269	0.201166	0.396222	-0.040111	0.79537	0.138545	0.689244	1.595696
1.050971	1.020954	0.176968	1.099026	-0.844112	0.000990000000000005	0.146809	0.043866	-0.018561	0.14589	0.323045	-0.069114	1.05233	0.450469	1.308413	1.905321
-0.318858	0.360169	-0.405234	0.804212	-0.49959	0.377895	0.314059	0.297408	-0.292646	-0.124713	0.081325	-0.421773	1.000772	0.397754	1.266775	1.882417
-0.060926	0.77064	-0.072927	1.036965	-0.533349	0.322425	0.362875	0.251118	-0.125358	-0.00175400000000003	0.169924	-0.188702	1.154953	0.463168	1.350087	1.935574
-0.190063	0.569948	-0.262057	1.017854	-0.831267	-0.023187	0.191644	-0.00251800000000002	0.013159	0.205929	0.386813	0.189166	1.028169	0.504689	1.085995	1.954131
0.484011	1.37124	0.37906	1.3292	-0.668886	0.153534	0.307619	0.131747	0.019571	0.197327	0.403064	0.224985	1.281888	0.68758	1.819689	2.150475
-0.060926	0.969854	-0.144468	1.104482	-0.601072	0.276745	0.355077	0.19358	0.24567	0.444261	0.66515	0.616296	1.104559	0.570929	1.188257	1.976808
0.250951	0.969854	-0.081264	1.206836	-0.512655	0.421677	0.439494	0.293068	0.103817	0.218757	0.42176	0.303636	1.183591	0.617812	1.439708	2.081498
0.328572	1.007851	0.019537	1.293247	-0.812256	0.04557	0.300843	0.059593	0.168927	0.276092	0.480064	0.421665	0.952102	0.40427	1.025291	1.890958
-0.088676	1.134952	0.06514	1.295311	-0.329471	0.657775	0.539204	0.363221	0.035823	0.152845	0.365005	0.189344	0.668623	0.161003	0.567945	1.699618
0.172037	0.969846	-0.089389	1.246879	-0.621456	0.365892	0.418924	0.19358	0.022773	0.03732	0.274938	0.117195	0.565906	0.148617	0.171921	1.620744
0.434164	1.250967	0.156475	1.428985	-0.2893	0.742853	0.555337	0.353668	0.227513	0.198704	0.348694	0.271385	0.617151	0.173464	0.48449	1.70329
1.723937	1.803925	0.730648	1.728607	-0.607825	0.395644	0.399866	0.132921	0.175617	0.085615	0.292604	0.261948	0.436685	0.140479	-0.038167	1.721835
1.705408	2.068023	0.746932	1.704745	-0.587491	0.459073	0.449992	0.251238	0.058517	0.047158	0.290406	0.143414	0.592357	0.291041	0.381372	1.815834
0.58999	1.475608	0.225783	1.4531	-0.811272	0.281911	0.329066	-0.00941499999999995	0.168927	0.114224	0.319922	0.284856	0.773469	0.457999	0.653792	1.886453
0.302923	1.475608	0.180436	1.402637	-0.634926	0.488954	0.465231	0.187314	0.159695	0.144195	0.248996	0.222775	1.004496	0.698513	1.15118	2.011951
0.145637	0.957129	-0.171745	1.198323	-0.519713	0.578708	0.58554	0.357999	0.087765	0.000814000000000009	0.231428	0.225589	0.772407	0.424114	0.631655	1.855172
0.721231	1.523376	0.503488	1.527558	-0.567158	0.457131	0.551264	0.34832	0.152994	0.020597	0.145674	0.127003	0.721187	0.512071	0.653792	1.921808
1.554594	1.660182	0.594224	1.551568	-0.506293	0.627968	0.603403	0.360581	0.189068	0.13554	0.263053	0.222775	1.159059	0.815968	1.361725	2.160488
1.819593	1.958842	0.837925	1.625786	-0.519713	0.54468	0.585909	0.304493	0.13034	0.049307	0.174504	0.067736	0.901228	0.615325	0.653792	1.929706
1.117104	1.534074	0.362079	1.448642	-0.553577	0.602327	0.56878	0.260707	0.53677	0.495734	0.594	0.718003	0.899882	0.630444	1.067218	2.023282
0.565762	1.294551	0.333672	1.317401	-0.607825	0.337939	0.466594	0.168591	0.374287	0.249051	0.319922	0.449189	0.642424	0.430789	0.526199	1.794019
-0.435861	0.684353	-0.343749	1.061409	-0.492581	0.542657	0.553263	0.246523	0.204936	0.029456	0.13029	0.136823	0.616981	0.298329	0.464166	1.638576
0.984785	1.504177	0.333672	1.418014	-0.34364	0.715246	0.605629	0.402066	0.331161	0.20015	0.347935	0.435378	0.642795	0.352248	0.693398	1.767088
0.409191	1.020954	-0.189771	1.138035	-0.397918	0.65565	0.486406	0.25892	0.272575	0.142849	0.246868	0.271385	0.978544	0.639891	1.0484	1.968885
0.962719	1.380012	0.316604	1.317401	-0.404504	0.687601	0.538329	0.350965	0.295062	0.190114	0.304427	0.294239	0.901228	0.581341	0.903213	1.883372
-0.275607	0.750037	-0.280253	1.083887	-0.452136	0.65565	0.556188	0.346177	0.479304	0.399199	0.479231	0.621837	0.797967	0.464453	0.903213	1.926144
0.674192	1.231321	0.117689	1.238827	-0.452136	0.598179	0.59058	0.411724	0.42079	0.370507	0.392217	0.405772	0.565633	0.260577	0.318232	1.743865
-0.435861	0.528086	-0.370566	0.983005	-0.425034	0.570438	0.590174	0.421432	0.436234	0.417654	0.406195	0.421665	0.925738	0.553656	1.169739	2.003865
1.159798	1.255649	0.27739	1.28311	-0.378187	0.592069	0.626125	0.445734	0.355538	0.380722	0.364231	0.376184	0.823496	0.421873	0.903213	1.926144
0.198391	0.618357	-0.027917	1.028162	-0.756231	0.184607	0.404082	0.163942	0.283829	0.274444	0.36041	0.238125	0.359229	-0.05416	0.108903	1.56894
0.198391	0.641643	-0.045662	1.003868	-0.600783	0.270055	0.455885	0.24182	0.232358	0.218757	0.246868	0.087751	0.436629	0.00369	0.234682	1.638576
-0.11649	0.787656	-0.235033	0.930806	-0.59397	0.266795	0.508091	0.314849	0.106735	0.086791	0.117466	-0.092789	0.591046	0.045511	0.547839	1.651084
0.434164	0.811528	0.145684	1.009126	-0.378187	0.471673	0.626923	0.440886	0.274813	0.228827	0.336967	0.176138	0.745315	0.284492	1.127848	1.88035
-0.377203	0.542784	-0.035959	0.875429	-0.506293	0.325773	0.643853	0.474815	0.236583	0.172922	0.283013	0.025168	0.797266	0.313322	1.127848	1.984764
0.768199	1.072342	0.288325	1.09906	-0.607825	0.212584	0.574868	0.346177	0.333151	0.294643	0.324458	0.087751	0.668848	0.148707	0.754914	1.772022
0.095557	0.815216	0.152539	0.971094	-0.553577	0.242136	0.626125	0.467583	0.377896	0.31317	0.38137	0.179362	0.565906	0.045511	0.360049	1.756139
0.686638	0.815216	-0.045662	0.969437	-0.499268	0.329178	0.626125	0.472464	0.451649	0.425856	0.438987	0.283677	0.514246	-0.00425699999999998	0.401903	1.713429
0.662516	0.923868	0.027037	0.972762	-0.322972	0.41618	0.626125	0.53813	0.480792	0.511833	0.510499	0.410436	0.410788	-0.144614	0.130139	1.62087
-0.765657	0.598605	-0.471243	0.722573	-0.140573	0.676945	0.79678	0.703486	0.5169	0.514142	0.45463	0.401275	0.229198	-0.327923	-0.37531	1.469439
0.614192	1.628662	0.407596	1.180772	-0.47209	0.330902	0.677006	0.514077	0.530869	0.545391	0.471999	0.369387	0.694979	0.165139	0.838585	1.834092
0.302923	1.37124	0.001861	0.984752	-0.207675	0.594091	0.779219	0.723912	0.450038	0.498085	0.39779	0.169569	0.669836	0.144461	0.485721	1.814634
0.302923	1.633802	0.282364	1.085724	-0.54661	0.339734	0.69261	0.539041	0.389817	0.482017	0.401876	0.202644	0.617713	0.03264	0.505985	1.722208
-0.507035	0.694592	-0.271373	0.805239	-0.25412	0.604424	0.812171	0.749748	0.412233	0.500513	0.385375	0.107271	0.643638	0.061608	0.505985	1.764789
1.028913	1.696815	0.345062	1.190404	-0.607869	0.255565	0.742821	0.554178	0.57429	0.711298	0.576084	0.419509	0.953118	0.388423	1.230074	2.000301
-0.247022	1.145543	-0.071541	0.885268	-0.132193	0.721888	0.880024	0.860492	0.514414	0.637778	0.404369	0.252527	0.591802	0.036676	0.671386	1.741709
1.291039	1.670425	0.49876	1.242829	-0.287865	0.666427	0.914239	0.782345	0.595677	0.722006	0.519239	0.380774	0.695528	0.177655	0.651544	1.830427
0.697719	1.597087	0.265191	1.06694	-0.342481	0.578708	0.862304	0.738018	0.410671	0.444959	0.271937	0.057747	0.64411	0.127893	0.401903	1.791512
0.58999	1.39393	0.299501	1.037064	-0.302232	0.604424	0.931355	0.78878	0.344896	0.376595	0.270422	0.044645	1.135176	0.542857	1.397708	2.069638
0.145637	1.070352	-0.134949	0.937637	-0.138477	0.871755	1.034274	0.972136	0.433122	0.500513	0.372941	0.163325	0.799477	0.240061	0.693398	1.810979
0.565762	1.453367	0.253984	1.037064	-0.458163	0.403148	0.844963	0.683422	0.573356	0.769391	0.505232	0.447276	1.185798	0.562807	1.37379	2.061957
-0.012769	1.108105	0.00938699999999998	0.934199	-0.199472	0.784098	1.051053	0.888895	0.684172	0.809276	0.457995	0.364802	1.161241	0.621075	1.541423	2.135161
0.721231	1.243474	0.288325	1.061409	-0.184774	0.668628	0.946794	0.838323	0.817164	0.991434	0.568857	0.552462	1.239517	0.645546	1.523816	2.18939
0.434164	1.304965	0.117689	1.010901	-0.102455	0.814109	1.015826	0.860492	0.853971	0.987606	0.61996	0.583684	0.904162	0.397232	1.006364	1.980631
-0.11649	1.059471	-0.063444	0.829745	-0.142449	0.698639	1.067893	0.888002	0.611671	0.715952	0.441731	0.264686	0.514982	0.036676	0.297483	1.751182
-0.172306	0.835539	-0.099121	0.834579	-0.409084	0.461031	0.893294	0.676754	0.729477	0.788887	0.424004	0.303636	0.33288	-0.136977	-0.121839	1.602775
0.54151	1.231321	0.37906	0.984752	-0.470609	0.373249	0.8405	0.620595	0.780763	0.900933	0.524136	0.473895	0.618582	0.136205	0.505985	1.754858
0.697719	0.825181	0.117689	0.932496	-0.354127	0.546718	0.892944	0.642754	0.905109	0.994644	0.580224	0.571246	0.800704	0.272517	0.777214	1.863857
1.705408	1.389971	0.56546	1.13239	-0.176257	0.662071	0.927996	0.743232	0.919677	0.955106	0.57774	0.579906	0.515134	-0.136977	0.108903	1.556251
0.434164	1.146025	0.260223	0.927459	-0.176257	0.689778	0.910581	0.782345	0.956028	1.084441	0.662847	0.713075	0.851536	0.235197	0.713132	1.806167
0.328572	0.699102	-0.100019	0.794464	0.074691	0.862192	1.015568	0.927848	0.839772	0.829656	0.504763	0.491734	0.592559	0.016681	0.48449	1.690273
-0.377203	0.759292	-0.162819	0.693761	-0.191104	0.572483	0.875966	0.744554	0.919681	1.066523	0.62158	0.645776	0.514458	-0.019935	0.276479	1.594275
0.89838	1.160445	0.435353	0.943554	-0.362028	0.485011	0.82373	0.661334	0.701847	0.642386	0.320957	0.215303	0.436814	-0.148406	0.17245	1.535357
0.484011	0.7876	0.149563	0.841679	-0.300769	0.54468	0.876195	0.744554	0.701847	0.746597	0.378658	0.24473	0.592989	0.020644	0.338929	1.608278
1.353001	1.269298	0.441141	1.066149	-0.205826	0.659915	0.911096	0.78878	0.934225	1.001865	0.60865	0.675274	0.540712	-0.012131	0.214016	1.631457
1.050971	1.316824	0.496982	1.071351	-0.273376	0.606536	0.893492	0.743232	0.919681	0.947807	0.509496	0.526077	0.306972	-0.234691	-0.285703	1.410199
0.662516	0.7876	0.211557	0.893404	-0.123647	0.781779	1.015588	0.910211	0.905111	1.027153	0.525758	0.458098	0.695816	0.037571	0.566482	1.654647
0.198391	0.856623	-0.037381	0.797488	-0.191104	0.726393	1.033018	0.904073	0.795987	0.893555	0.496448	0.451217	0.384871	-0.292128	-0.139392	1.393766
0.81509	1.040588	0.362704	0.995334	-0.136178	0.756403	1.033018	1.049173	0.825059	0.875428	0.468721	0.398939	0.566551	-0.037032	0.214016	1.533005
0.508883	0.833483	0.159621	0.950136	-0.381614	0.494982	0.910737	0.814084	0.992487	1.085003	0.656093	0.666922	0.566924	-0.029191	0.234704	1.586614
1.202506	1.36489	0.6766	1.076655	-0.087398	0.816481	1.067936	1.043364	0.912382	0.933209	0.555921	0.503447	0.410834	-0.11961	0.068082	1.579507
0.768199	1.1587	0.536875	1.054197	-0.074985	0.779476	1.015611	0.965485	0.671897	0.600529	0.383057	0.199031	0.515134	-0.025243	0.0252309999999999	1.570422
0.791654	0.879896	0.294523	0.95181	-0.191104	0.630071	0.928581	0.876462	0.730095	0.734219	0.484979	0.392131	0.254647	-0.277541	-0.352819	1.414156
-0.060926	0.768367	0.107361	0.828156	-0.108692	0.719658	0.963439	0.920953	0.766377	0.896958	0.602578	0.539982	0.098206	-0.443277	-0.542366	1.370959
1.394347	1.063942	0.480237	1.074876	-0.237648	0.606536	0.876195	0.808759	0.627756	0.734219	0.399229	0.146657	0.306837	-0.227294	-0.058296	1.523762
0.277157	0.819556	0.339573	0.95181	-0.191104	0.630071	0.946132	0.893345	0.693124	0.737238	0.416231	0.130257	0.229043	-0.345944	-0.224919	1.410727
1.926802	1.582299	1.053556	1.305174	-0.360633	0.433067	0.876195	0.791791	0.605643	0.650437	0.372864	-0.00434799999999999	0.12492	-0.536393	-0.47784	1.284466
1.502465	1.195298	0.627272	1.078446	-0.326625	0.490948	0.911194	0.808759	0.54741	0.545391	0.21399	-0.198072	0.228756	-0.399812	-0.269291	1.421048
1.502465	1.485796	1.053556	1.230967	-0.176257	0.606536	0.911194	0.914858	0.591679	0.553342	0.298669	-0.075979	0.097958	-0.5077	-0.672147	1.337888
0.686638	1.027315	0.458184	0.948475	-0.121175	0.600246	0.963578	0.960066	0.686024	0.697664	0.316967	-0.086464	0.202322	-0.428504	-0.397864	1.381216
0.430752	0.994276	0.27739	0.867534	-0.180152	0.488954	0.946052	0.892555	0.708074	0.723616	0.417011	0.035327	0.124214	-0.600307	-0.48168	1.267814
0.303315	0.764854	0.187246	0.765643	-0.152445	0.54468	0.911001	0.875635	0.641838	0.72658	0.333934	-0.096939	0.437298	-0.349497	-0.039461	1.481887
0.303315	0.653587	0.204546	0.787095	-0.158709	0.485011	0.945901	0.948626	0.480792	0.335387	0.087968	-0.526795	0.385014	-0.353033	0.04565	1.481887
0.481587	0.571354	0.23904	0.731461	-0.186448	0.395644	0.911194	0.859561	0.715184	0.626707	0.406195	-0.109632	0.672918	-0.184648	0.213721	1.555961
0.456191	0.773443	0.418492	0.757125	-0.386697	0.18936	0.789659	0.72627	0.590508	0.456637	0.265228	-0.314651	1.064564	0.087139	0.987395	1.705825
-0.00561300000000003	0.308097	-0.135806	0.506812	-0.250405	0.271706	0.859802	0.727629	0.685283	0.673738	0.470298	-0.120165	0.594769	-0.345944	0.04565	1.46551
0.662516	0.428552	0.169911	0.632747	-0.271574	0.155055	0.808113	0.695227	0.743868	0.626707	0.429955	-0.143421	0.672918	-0.242018	0.067049	1.395063
1.798349	0.953788	0.76666	0.85694	-0.443138	0.008918	0.825573	0.607055	0.73623	0.590069	0.36049	-0.266439	0.516663	-0.561722	-0.43979	1.244488
0.686638	0.503937	0.339573	0.657133	-0.394691	-0.017885	0.825207	0.600196	1.037865	1.016286	0.723154	0.209331	0.937485	-0.058073	0.297976	1.583152
-0.133387	-0.128433	-0.162819	0.378632	-0.284401	0.187762	0.928764	0.760176	0.78763	0.72658	0.477187	-0.084154	1.146116	0.156887	1.02954	1.843223
0.533722	0.428552	0.339573	0.632747	-0.173858	0.306442	0.998156	0.876462	1.09802	1.147047	0.766885	0.321325	1.015447	0.049509	0.6959	1.689785
0.198391	0.04019	-0.063444	0.408554	-0.359038	0.161275	0.980608	0.707963	1.061797	1.133232	0.870331	0.440297	0.306715	-0.522766	-0.653516	1.291464
1.855178	1.182062	0.685131	0.840161	-0.324903	0.219039	1.015531	0.752516	0.817303	0.751079	0.532341	-0.044175	0.728082	-0.162049	0.00268499999999999	1.559601
0.768199	0.481759	0.24302	0.636642	-0.427461	0.076776	0.962958	0.644953	0.980328	0.951312	0.734053	0.218914	0.780506	-0.079163	0.340157	1.622885
0.768199	0.603886	0.396009	0.661078	-0.393223	0.13315	1.033055	0.644953	1.107096	1.060906	0.868165	0.45613	1.226493	0.310066	1.052931	1.843223
0.068559	0.40565	0.08987	0.458882	-0.365532	0.220688	1.033074	0.627846	1.136921	1.060906	0.839393	0.478885	0.754056	-0.104199	0.108377	1.548719
-0.218508	0.168169	-0.126526	0.383912	-0.158709	0.367709	1.120778	0.77376	1.055248	0.955078	0.824473	0.367038	0.991148	0.090594	0.571704	1.725582
-0.060926	0.329154	-0.063444	0.408554	-0.124722	0.425415	1.173372	0.835521	1.182583	1.035734	0.87142	0.463095	0.755554	-0.092453	0.171636	1.572202
-0.190063	0.252268	-0.126526	0.359238	0.020201	0.602327	1.260937	0.919658	1.040943	0.794356	0.73706	0.248502	0.596986	-0.208499	-0.251968	1.47834
0.638367	0.598605	0.288325	0.563148	0.087793	0.630071	1.295902	0.936595	0.974526	0.673068	0.653476	0.133628	1.174359	0.310066	1.052931	1.827855
0.068559	0.360169	0.027037	0.436556	-0.380174	0.190973	1.068084	0.52141	1.048733	0.680717	0.696306	0.261948	0.938149	0.169292	0.780228	1.777183
-0.033238	0.560506	0.152539	0.409657	-0.133672	0.451393	1.173043	0.684366	0.966795	0.651487	0.710237	0.120402	0.963265	0.161003	0.611718	1.726659
-1.022904	-0.042644	-0.32543	0.207713	-0.167569	0.423538	1.173043	0.627846	1.152666	0.69915	0.827656	0.367038	1.459924	0.486664	1.319544	1.949248
0.224695	0.646316	0.24302	0.537348	0.099785	0.657775	1.243057	0.796135	1.234479	0.834518	0.975027	0.597858	0.857613	-0.061968	0.443794	1.597365
-0.862489	-0.2056	-0.307151	0.20679	-0.30555	0.247066	1.102979	0.476816	1.107096	0.590234	0.808514	0.323809	1.041146	0.128022	0.673618	1.71438
0.40527	0.445623	0.187246	0.434285	-0.341128	0.067932	0.998071	0.412167	1.165162	0.671635	0.963706	0.526077	1.14527	0.235197	0.757653	1.831678
-0.605925	0.252175	-0.108622	0.335585	0.053274	0.558482	1.224998	0.692297	0.883777	0.308468	0.645795	0.012301	0.909795	-0.012131	0.569683	1.702088
0.379745	0.795028	0.429801	0.587677	-0.218544	0.242136	1.050483	0.473715	1.05409	0.434514	0.736053	0.218914	1.14527	0.264061	0.88398	1.862902
-0.47713	0.329854	-0.216922	0.362473	-0.37508	0.128531	1.050496	0.444418	1.135446	0.540006	0.880921	0.42851	1.35192	0.420094	1.379736	1.949262
1.050971	1.319965	0.610764	0.79597	-0.148723	0.423538	1.173043	0.600318	1.292181	0.725153	1.060151	0.583684	1.198155	0.185768	1.02954	1.784059
0.379745	0.422053	-0.045662	0.515231	-0.182566	0.423538	1.190575	0.58319	1.0993	0.495027	0.915173	0.33058	0.648404	-0.277541	-0.05984	1.432668
1.050971	1.045581	0.763185	0.79597	-0.415652	0.072292	0.945489	0.274117	1.011081	0.343684	0.759181	0.127003	1.198155	0.247803	1.02954	1.839058
0.328572	0.646316	0.271172	0.595544	-0.231276	0.245408	1.015527	0.432263	1.29437	0.70237	1.012075	0.492866	1.148714	0.314394	0.718393	1.846903
0.014396	0.784257	0.271172	0.621511	-0.093609	0.483061	1.068084	0.50936	1.048733	0.364662	0.837413	0.193041	1.122177	0.235782	0.676137	1.779708
0.302923	0.66041	0.271172	0.620145	-0.142449	0.536678	1.085478	0.476816	1.242474	0.500313	0.971677	0.39461	0.808075	0.023873	-0.103355	1.581704
0.434164	0.722294	0.163077	0.621511	0.084152	0.745072	1.190461	0.633076	1.204561	0.55604	1.05721	0.492866	0.781553	-0.001178	0.0870879999999999	1.665145
1.159798	0.934744	0.458184	0.770045	0.12971	0.770419	1.207628	0.70143	1.011081	0.324981	0.80845	0.117197	1.25303	0.410586	0.926163	1.878517
0.87561	0.688626	0.384667	0.716816	-0.169951	0.45329	1.102836	0.52141	1.232549	0.582403	1.067371	0.568087	1.174359	0.415076	0.738046	1.831264
0.434164	0.551455	-0.000525999999999999	0.516475	0.102193	0.77266	1.172573	0.768429	0.965882	0.343684	0.806285	0.17672	1.303087	0.464453	1.193216	1.929649
-0.567102	0.428708	0.017133	0.542372	-0.169951	0.546718	1.13778	0.638319	1.143236	0.487036	0.876922	0.341894	1.225551	0.390336	0.841834	1.823524
-0.990987	-0.054016	-0.442177	0.262239	-0.239576	0.425415	1.050466	0.52655	1.105748	0.439293	0.81805	0.364802	0.909795	0.190338	0.485721	1.686046
0.277234	0.40565	-0.072927	0.543653	0.05934	0.774916	1.224761	0.739667	1.076069	0.439293	0.845849	0.39461	1.094838	0.173941	0.633917	1.720899
1.311683	0.876164	0.586708	0.844748	-0.205826	0.485011	1.085374	0.559246	1.105748	0.497631	0.874709	0.364802	0.935552	0.077997	0.569683	1.646424
1.159798	0.519669	0.356587	0.770045	-0.308704	0.304712	1.033049	0.499108	1.172989	0.614519	0.949655	0.506946	0.91041	0.027964	0.360791	1.563253
2.677314	1.267845	1.12997	1.09906	-0.25412	0.362301	0.998192	0.476816	1.41719	0.805253	1.13751	0.68007	0.702075	-0.156163	-0.103355	1.45983
1.723937	0.91339	0.598612	0.898191	-0.050201	0.536678	1.120118	0.634523	1.254419	0.603783	0.994678	0.463095	0.938821	0.06127	0.361804	1.594215
0.58999	0.435972	0.124817	0.644715	-0.117386	0.447641	1.102675	0.528323	1.403547	0.757629	1.172621	0.627646	0.676464	-0.185359	-0.316495	1.348942
0.89838	0.473845	0.232297	0.768567	-0.163648	0.362301	1.085275	0.48891	1.485039	0.805253	1.232867	0.784771	0.80697	-0.167919	0.192705	1.496195
1.742497	0.768367	0.643747	0.919286	-0.237648	0.190973	0.945975	0.392768	1.512009	0.838401	1.315202	0.778238	0.650368	-0.272839	-0.358751	1.389073
1.181152	0.656	0.458184	0.716816	-0.279803	0.242136	0.963653	0.367818	1.262355	0.545375	1.089813	0.403609	0.93683	-0.150511	0.234682	1.395063
0.638367	0.337285	0.260223	0.61479	-0.108692	0.388373	1.102613	0.53016	1.05409	0.312443	0.939245	0.189344	1.015447	0.011708	0.569683	1.635343
0.041505	0.466829	0.072342	0.566983	-0.087398	0.447641	1.102613	0.535246	1.143236	0.447364	0.983186	0.195983	0.989715	-0.096386	0.33941	1.458426
0.459104	0.513391	0.100208	0.59288	-0.333099	0.158137	0.928959	0.360528	1.113503	0.381025	0.955448	0.232288	0.648404	-0.349527	0.0252309999999999	1.364701
0.068559	0.413663	0.163077	0.5411	-0.074985	0.35529	1.015982	0.50798	1.061797	0.295821	0.839624	0.103949	0.673642	-0.385635	-0.036627	1.33449
1.050971	0.95907	0.594224	0.768567	-0.163648	0.270055	0.963989	0.468677	1.268338	0.611563	1.071035	0.314517	0.753105	-0.299042	0.213739	1.447892
0.379745	0.475232	0.215045	0.613477	-0.381614	0.069372	0.877251	0.271749	1.298072	0.688365	1.113695	0.426414	0.885207	-0.154375	0.381372	1.521669
1.37367	1.033776	0.643747	0.79001	-0.279803	0.211005	0.929512	0.362868	0.883777	0.198147	0.748373	-0.202616	0.622027	-0.465088	-0.269291	1.251132
0.791654	0.995366	0.288325	0.693761	0.074691	0.619706	1.102603	0.680487	1.060711	0.40781	0.920795	0.084255	0.306813	-0.733492	-0.928691	1.103832
0.508883	0.757037	0.24302	0.643343	-0.108692	0.332639	1.050582	0.584816	1.09802	0.428769	0.894167	0.015021	0.359886	-0.69796	-0.760911	1.200893
0.224695	0.541322	0.027037	0.493055	-0.245967	0.330902	1.050613	0.456557	1.002384	0.304133	0.821297	-0.067351	0.781553	-0.313195	-0.123641	1.42205
-0.47713	0.527023	-0.081264	0.443614	-0.102455	0.449509	1.119969	0.58997	0.987977	0.258308	0.824579	-0.054492	1.019982	-0.00523499999999999	0.382377	1.673716
-0.765657	0.221387	-0.235033	0.418846	0.306718	0.917138	1.345805	0.987301	1.025441	0.375196	0.901	-0.011787	1.31255	0.203189	1.015224	1.910092
0.354179	0.804641	0.253984	0.67636	0.102193	0.653541	1.25904	0.76311	1.174661	0.503073	1.036871	0.272985	1.81209	0.615325	1.683362	2.178347
0.87561	1.416761	0.652295	0.960348	0.04445	0.576618	1.294648	0.817687	1.204561	0.628377	1.108689	0.385628	1.532455	0.408426	1.124421	2.013138
-0.507035	0.386461	-0.117016	0.443614	-0.041459	0.481127	1.278513	0.72792	1.449772	0.985168	1.339863	0.708371	1.248739	0.141075	0.533837	1.799268
0.744723	1.529803	0.821812	0.688201	0.116445	0.536678	1.281247	0.823111	1.707132	0.933131	1.23155	0.686397	1.150158	0.257367	0.72484	1.807656
-0.088676	1.341648	0.390665	0.621614	-0.130227	0.283661	1.158834	0.635695	1.538069	0.776928	1.165273	0.506946	0.906226	-0.059411	0.086823	1.579489
0.614192	1.722194	0.606649	0.835979	0.104622	0.516837	1.282229	0.851059	1.403614	0.703655	1.126373	0.378662	1.172894	0.111301	0.426176	1.744508
-0.926523	0.52231	0.037175	0.514657	0.405505	0.786433	1.425198	1.09367	1.027926	0.206642	0.796674	-0.147612	1.65134	0.464453	1.435244	2.098931
1.028913	1.482123	0.89948	1.014687	0.44029	0.88911	1.554701	1.054295	1.466223	0.70677	1.243975	0.528251	1.633637	0.462602	1.216283	2.184216
-0.605925	0.267571	0.169911	0.642268	0.14893	0.481436	1.305865	0.775105	1.41719	0.60589	1.294833	0.491206	1.016545	0.031941	0.152133	1.75933
1.462519	1.19641	1.159628	1.095746	0.457898	0.628506	1.377754	0.79787	1.401061	0.656191	1.293512	0.385628	1.067065	-0.035108	0.606204	1.800402
-0.47713	-0.314489	0.463459	0.625234	0.498977	0.609602	1.432444	0.722658	1.351888	0.321295	1.107509	0.143981	1.388735	0.211853	1.395451	2.049046
-0.088676	0.166638	0.872931	0.72876	0.320936	0.366421	1.323927	0.379119	1.292181	0.136673	0.979665	-0.015351	1.710893	0.5214	2.227327	2.406224
-0.190063	-0.331862	0.754166	0.577767	0.452413	0.392683	1.340891	0.443751	1.636232	0.58527	1.304202	0.602695	1.313323	0.199945	1.40879	2.197563
-0.417575	-0.583422	0.652691	0.551033	0.411732	0.388675	1.266764	0.382694	1.457992	0.545375	1.121253	0.298462	1.176358	0.061366	1.060397	1.816573
-0.545012	-1.206456	0.41348	0.351049	0.178851	0.119396	1.210497	0.174446	1.479588	0.543217	1.04095	0.233735	1.36142	0.213208	1.413919	1.78624
-0.990262	-1.542385	0.41348	0.278198	0.668686	0.643012	1.419358	0.46616	1.69941	0.865781	1.216491	0.505411	0.954403	-0.237859	0.367759	1.251875
-0.894452	-1.969012	0.122328	0.180186	0.550234	0.492958	1.330424	0.376309	1.74598	0.827304	1.01931	0.147941	1.000592	-0.228191	1.181073	1.336565
-0.47713	-1.714808	0.424298	0.384997	0.47216	0.380842	1.347545	0.414174	1.566315	0.602623	0.882377	-0.099271	1.320509	0.099422	1.725298	1.609359
0.068559	-1.523274	0.513693	0.440039	0.394421	0.414851	1.382616	0.382694	1.866825	0.98348	1.125557	0.196355	1.025732	-0.145333	1.520037	1.444803
-0.377203	-1.544376	0.452181	0.46958	0.417071	0.412863	1.312688	0.317978	1.48222	0.460064	1.029209	0.11679	1.606266	0.315739	2.433367	1.774525
0.354179	-1.395395	0.575047	0.574937	0.12971	0.00392999999999999	1.137999	0.086249	1.689285	0.534107	1.264298	0.531044	1.842172	0.574148	2.779611	2.019864
0.041505	-1.331635	0.452181	0.579058	0.241739	0.119396	1.137715	0.156911	1.213751	0.157081	0.966876	0.109799	1.582185	0.30451	2.103869	1.856797
0.224695	-1.310993	0.53037	0.706903	0.384727	0.418874	1.242098	0.363388	1.3809	0.307317	1.139464	0.432239	1.506833	0.293331	1.644822	1.820499
0.87561	-0.91123	0.692978	0.893781	0.224118	0.364417	1.15504	0.288084	1.17701	0.17034	1.030438	0.280299	1.290172	0.104838	1.52453	1.688834
1.117104	-0.552324	0.947285	1.159649	0.300933	0.461755	1.137715	0.401905	1.227226	0.302602	1.117684	0.478479	1.448997	0.38939	1.575817	1.832654
1.117104	-0.470771	0.93138	1.239171	0.190706	0.340088	1.067885	0.260201	1.343199	0.550544	1.302782	0.737736	1.41725	0.290614	1.677581	1.813504
1.952639	0.151124	1.29554	1.44487	0.218239	0.518265	1.050532	0.26748	1.228518	0.287943	1.096109	0.547605	1.231363	0.226646	1.26138	1.685143
0.852828	-0.538781	0.750418	1.159649	-0.102455	0.190257	0.912107	0.018946	1.166765	0.282663	1.048273	0.50998	1.332726	0.381606	1.457305	1.834269
2.118733	0.05621	1.280782	1.464464	-0.00158999999999998	0.24904	0.912648	0.07957	0.965106	0.081515	0.96815	0.389	1.357154	0.485914	1.291639	1.743519
1.270405	-0.382027	0.994817	1.175993	0.099785	0.034034	0.654163	-0.265189	0.985874	0.147096	0.932385	0.436706	1.543316	0.609734	1.467721	1.711161
1.422637	0.168169	1.252063	1.259007	0.0177649999999999	-0.024627	0.60061	-0.376341	1.094274	0.34667	1.038167	0.514022	1.20183	0.444307	1.0341	1.564175
1.462519	0.390717	1.015944	1.321221	-0.143432	0.184836	0.84267	-0.065767	1.021286	0.385216	1.051907	0.461307	1.17618	0.444307	1.21691	1.668079
1.095068	0.638988	1.285644	1.41474	-0.032284	0.334143	0.912371	0.169849	1.07202	0.331677	1.054242	0.551061	1.43685	0.727849	1.777022	1.946444
0.686638	0.232033	0.990795	1.345153	0.010664	0.360454	0.947628	0.147526	0.774667	-0.141577	0.736053	0.09092	1.358232	0.654211	1.368035	1.962952
1.073022	0.618357	1.166818	1.479122	0.007908	0.183059	0.913726	0.045641	0.905239	0.078034	0.793612	0.203797	1.381522	0.512071	1.513222	1.967112
0.791654	0.267897	0.883141	1.309202	0.180046	0.447034	0.965892	0.199769	0.919811	0.096771	0.878766	0.415546	1.275638	0.487354	1.350024	1.999555
0.379745	0.168169	0.883141	1.260994	0.252003	0.47309	0.932216	0.172616	0.811306	-0.064596	0.779741	0.279853	1.715925	0.835431	2.05792	2.194802
0.81509	0.413663	1.104682	1.415857	0.164936	0.416855	0.881067	0.167758	0.565557	-0.33199	0.561201	-0.111411	1.350905	0.473555	1.45303	1.982788
0.966616	0.390489	1.208998	1.490027	0.215801	0.436982	0.84824	0.077309	0.623199	-0.322392	0.549037	-0.075095	1.318837	0.392818	1.481743	1.886559
0.966616	0.229426	1.089075	1.415857	0.404664	0.557136	0.950732	0.301372	0.760572	-0.150726	0.635662	-0.005239	1.192111	0.235782	1.0484	1.747775
1.502465	0.674513	1.520869	1.621054	0.323632	0.408932	0.848759	0.146683	0.789471	0.020597	0.884179	0.355728	1.449935	0.392818	1.642812	1.910092
2.09025	0.702745	1.550468	1.637875	0.07782	0.234395	0.746532	-0.011023	0.594369	-0.265329	0.708243	0.094086	1.13963	0.173464	0.960649	1.70108
1.394347	0.528086	1.416554	1.540132	0.182899	0.199247	0.747529	0.00985800000000001	0.586079	-0.284056	0.593769	-0.1412	1.009307	0.00369	0.794026	1.62658
2.09025	0.947928	1.68425	1.664024	0.116951	0.260836	0.781025	0.063191	0.490904	-0.35076	0.452586	-0.281903	1.293558	0.301467	1.6115	1.906099
1.415027	0.750037	1.371877	1.487821	0.056924	0.084528	0.764106	0.129366	0.687867	-0.121301	0.666453	0.017982	1.246441	0.215217	1.230074	1.902159
0.861895	0.352173	1.162669	1.287129	0.610837	0.700893	1.053314	0.603559	0.468755	-0.283323	0.508807	-0.31808	1.219235	0.264872	1.248445	1.898213
0.686638	0.422053	0.936795	1.265005	0.1109	0.204385	0.848759	0.28902	0.999561	0.399661	0.962349	0.459639	1.299152	0.327489	1.331971	1.969143
1.245218	0.66041	1.296822	1.415857	0.170927	0.322663	0.865708	0.311189	0.897865	0.341499	0.946226	0.399636	1.559864	0.610607	1.785801	2.169965
0.686638	0.436975	0.981555	1.265005	0.567134	0.675327	1.069776	0.685701	0.781195	0.112594	0.642435	-0.078811	1.012622	0.107122	0.835628	1.803802
0.838503	0.73616	1.296822	1.315334	-0.034096	0.211438	0.829719	0.279064	1.189381	0.673068	1.022334	0.609972	0.88284	0.002896	0.588003	1.787903
0.021947	0.213679	0.786598	1.061409	0.213099	0.354624	0.915552	0.44947	0.956209	0.364662	0.804134	0.238197	1.299152	0.498225	1.451403	2.098931
0.989333	0.551455	1.26737	1.289156	0.186013	0.384728	0.966666	0.466659	0.948854	0.383354	0.789145	0.261353	1.119667	0.345217	1.044177	2.016487
0.533722	0.275248	0.847401	1.139941	0.507298	0.73793	1.069149	0.673881	0.846701	0.210322	0.599464	-0.00545000000000001	1.196378	0.448852	1.534786	2.133872
2.038327	1.256165	1.595673	1.546956	0.375935	0.686805	1.068881	0.672543	0.890516	0.402023	0.787029	0.261353	1.014015	0.26174	1.081821	1.929649
-0.033238	-0.070816	0.53037	0.962089	0.005358	0.241598	0.897707	0.41504	1.043403	0.526826	0.829798	0.367724	0.909189	0.178228	0.813515	1.855172
1.095068	0.763924	1.282648	1.315334	0.246103	0.447034	0.966346	0.595137	0.999862	0.510993	0.790209	0.335689	1.274679	0.512071	1.469227	2.094005
-0.00561300000000003	-0.076085	0.519155	0.956899	0.06564	0.360454	0.897707	0.454535	1.087502	0.694774	0.966982	0.593533	1.091666	0.291041	1.059122	1.847493
0.250951	0.200113	0.923992	1.13426	0.360318	0.623987	1.000369	0.639731	0.956209	0.551059	0.85023	0.365906	1.067581	0.270544	0.71093	1.808195
0.224695	0.367451	0.741921	1.063241	0.664878	0.866405	1.120142	0.908163	0.810011	0.321295	0.676407	0.091747	0.517133	-0.337642	-0.034847	1.454903
0.533722	0.420811	0.863456	1.162291	0.375935	0.628506	0.999767	0.665982	0.692443	0.178513	0.579131	-0.025392	1.357154	0.535543	1.391796	2.039507
0.430752	0.018186	0.669106	0.984752	0.107757	0.275543	0.844547	0.428264	0.714073	0.269444	0.611257	-0.042141	1.357154	0.506028	1.433541	1.972813
0.277157	0.100909	0.713619	1.141858	0.128924	0.307761	0.861151	0.500731	0.942466	0.466402	0.746123	0.271248	1.25303	0.397312	1.248445	1.929649
0.430752	0.100909	0.863456	1.115638	0.331397	0.604998	1.016391	0.647572	1.185536	0.768073	0.97884	0.569758	0.964641	0.179252	0.691181	1.733114
-0.00561300000000003	0.123197	0.802765	1.143787	0.265193	0.518265	0.99907	0.607883	1.141835	0.749489	0.995178	0.607697	0.858757	0.090811	0.608013	1.61553
1.779705	1.14513	1.550831	1.553892	0.304143	0.513892	0.930018	0.51799	1.083788	0.637503	0.867219	0.407766	1.251095	0.397312	1.183607	1.851326
0.989333	0.542784	0.968544	1.216609	0.506452	0.749867	1.033698	0.654131	1.104541	0.60082	0.947429	0.623218	1.069947	0.213208	0.566482	1.674904
1.689582	0.838845	1.342411	1.442049	0.216558	0.39471	0.843949	0.400767	0.98644	0.482211	0.812828	0.364211	1.48884	0.68833	1.368163	1.953143
0.63272	0.337285	0.867128	1.158482	0.14094	0.301975	0.775448	0.32866	0.861385	0.318006	0.682561	0.210415	1.041146	0.254434	0.709005	1.609926
1.309274	0.534487	1.120259	1.234874	0.282755	0.481436	0.930727	0.559246	1.096879	0.630517	0.887071	0.546711	1.277588	0.485914	1.1193	1.832289
0.608025	0.679304	1.060292	1.212664	0.342973	0.511728	0.913401	0.547247	0.905489	0.377309	0.708519	0.310649	1.46226	0.683396	1.510793	1.968768
0.481587	0.458798	0.955784	1.188454	0.249681	0.574611	0.947628	0.557678	0.912949	0.496136	0.679467	0.233742	1.251095	0.506028	1.243571	1.855659
0.049444	0.32178	0.74619	1.061409	0.517649	0.808165	1.033844	0.721505	1.037865	0.593134	0.80845	0.410503	0.884005	0.22499	0.606573	1.636866
1.56248	0.91339	1.313122	1.33944	0.074523	0.247156	0.826754	0.393645	0.883452	0.388125	0.734408	0.242926	1.041146	0.363255	0.85501	1.777183
0.049444	0.222574	0.68549	1.063241	0.342973	0.481436	0.895895	0.535232	0.942466	0.466402	0.720432	0.219657	0.857055	0.107392	0.400717	1.554201
1.012034	0.815216	1.104682	1.262993	0.391679	0.542041	0.91309	0.512795	0.949478	0.423017	0.803065	0.351722	0.753105	0.00253100000000001	0.297288	1.541528
0.71073	0.504854	0.758171	1.139941	0.436026	0.533392	0.861906	0.452576	1.045455	0.522745	0.908053	0.532967	0.779497	0.170502	0.380171	1.651456
-0.484469	0.04019	0.68549	0.960348	0.364425	0.509581	0.930727	0.480062	1.023518	0.485206	0.837413	0.456671	1.171705	0.422197	0.89654	1.765032
-0.231924	0.023643	0.502462	0.935912	0.451897	0.628506	0.948038	0.497293	1.08264	0.514922	0.838517	0.440834	1.06836	0.372392	0.608013	1.768812
-0.0208820000000001	0.133518	0.71816	1.031687	0.479167	0.63079	0.931034	0.514507	1.067363	0.415004	0.80845	0.463914	1.220108	0.516727	1.17926	1.863281
-0.767239	-0.240888	0.32466	0.908064	0.210639	0.33611	0.810699	0.333675	1.103472	0.567957	0.995856	0.669611	0.829176	0.069616	0.256433	1.507474
-0.231924	0.155586	0.491468	1.009126	0.473533	0.693884	0.948328	0.519668	1.140574	0.589834	0.939245	0.684525	1.011939	0.324824	0.769898	1.663875
-0.672114	-0.223324	0.236002	0.805239	0.599412	0.866405	1.000119	0.615944	0.942021	0.267062	0.645393	0.266164	0.855439	0.216213	0.441654	1.573995
-0.289803	0.375329	0.608139	0.934199	0.397404	0.628506	0.862926	0.402841	0.839277	0.128124	0.597551	0.19179	0.64635	-0.068471	0.174254	1.437468
-1.084504	-0.283513	0.236002	0.727004	0.397404	0.570147	0.828513	0.385576	0.751532	0.069361	0.653476	0.215009	0.594217	-0.064409	-0.219124	1.307779
-0.32888	-0.01314	0.602129	0.924156	0.249681	0.39471	0.759624	0.306337	0.686024	0.010668	0.578854	0.078116	1.063114	0.379053	0.667758	1.61352
0.049444	0.008268	0.524851	0.875429	0.261441	0.509581	0.794335	0.279064	0.839462	0.107336	0.604929	0.261353	0.880097	0.207511	0.626547	1.56686
-0.048902	0.063243	0.558103	0.846299	0.294449	0.537685	0.760181	0.274117	0.912382	0.203839	0.632814	0.367724	0.724268	0.098899	0.235516	1.480632
-0.048902	-0.093873	0.199433	0.79597	0.306131	0.475154	0.846521	0.281565	0.803141	0.193409	0.690403	0.314563	0.593454	-0.130922	0.070879	1.321016
-1.143601	-0.174119	0.155487	0.641982	0.480182	0.651949	0.79539	0.360528	0.795987	0.134858	0.659707	0.330634	0.80201	0.065434	0.524043	1.453858
-0.270172	-0.021328	0.50361	0.841679	0.30029	0.447034	0.726981	0.219832	0.657866	-0.020042	0.499977	0.051147	1.008048	0.273519	1.014341	1.618908
0.00706699999999993	0.134448	0.547397	0.841679	0.27906	0.47309	0.761628	0.192786	0.774051	0.048715	0.575168	0.087864	0.77501	0.107122	0.646473	1.463336
0.854655	0.34352	0.962751	1.066149	0.284926	0.352711	0.659669	0.121536	0.788363	0.069361	0.591901	0.147941	0.645737	-0.080544	0.111985	1.291139
0.433349	0.365015	0.843146	0.941936	0.437412	0.494982	0.711294	0.239858	0.82475	0.109138	0.594709	0.154783	0.956967	0.186092	0.769898	1.436734
-0.42429	-0.253879	0.155487	0.666486	0.425994	0.529162	0.813217	0.350602	0.765945	-0.034796	0.436767	-0.082419	0.95815	0.219499	0.709005	1.479668
0.53225	0.46119	0.87105	0.941936	0.47453	0.559266	0.778928	0.377758	0.846578	0.140529	0.553636	0.054777	0.722811	-0.013293	0.421012	1.291393
-0.579462	-0.197725	0.050203	0.512775	0.540018	0.761045	0.916165	0.535246	0.941708	0.256449	0.668414	0.238197	0.64516	-0.067366	0.277297	1.311206
0.63272	0.77101	0.899124	0.967792	0.224963	0.350812	0.693978	0.266861	1.182913	0.549273	0.887474	0.631957	0.851991	0.144461	0.707354	1.482363
-0.32888	0.151006	0.375616	0.69096	0.551189	0.73096	0.864968	0.53016	0.890516	0.258774	0.64048	0.205674	0.567125	-0.150511	0.195327	1.248491
-0.610248	0.513688	0.541493	0.741244	0.137911	0.324539	0.745245	0.232281	0.81032	0.079728	0.531449	0.111113	1.03617	0.381408	1.036629	1.674262
-1.337049	0.109037	0.103322	0.542372	0.050809	0.177815	0.642318	0.096314	0.890516	0.264758	0.662576	0.284478	0.463209	-0.146629	-0.11501	1.27804
-0.0208820000000001	0.575055	0.514118	0.79001	0.246103	0.563571	0.761628	0.269183	1.087502	0.441801	0.82237	0.481061	0.72389	0.077997	0.194304	1.416945
-1.018473	0.043659	-0.090805	0.515231	0.158942	0.444993	0.74462	0.167758	0.926996	0.304844	0.706265	0.284478	0.932522	0.248675	0.647891	1.575972
-0.610248	0.632869	0.402892	0.771535	0.339023	0.617326	0.796215	0.34328	0.744362	-0.00687199999999999	0.460555	-0.102229	1.190475	0.401664	1.1193	1.638576
-0.672114	0.544383	0.184245	0.725516	0.273189	0.501147	0.778642	0.242042	0.802771	0.041648	0.577927	-0.002113	1.21668	0.480036	0.97631	1.66181
-0.672114	0.755807	0.485735	0.750046	0.234294	0.501147	0.795661	0.197632	0.751532	0.098734	0.591901	-0.015351	1.242899	0.397232	1.059122	1.665409
-1.051429	0.242456	0.290516	0.647491	0.047346	0.209652	0.67559	0.051965	0.766377	0.000401999999999986	0.605864	0.047772	1.604069	0.825528	1.936544	1.968885
0.303315	0.852637	0.831315	1.00561	0.201222	0.354624	0.813217	0.222573	1.022138	0.350703	0.886372	0.528251	0.930268	0.078391	0.709005	1.433345
-1.210941	-0.487866	-0.028896	0.49556	0.119827	0.176097	0.762533	0.129366	0.86125	0.195401	0.755038	0.272985	0.774611	-0.00425699999999998	0.441654	1.363942
0.303315	0.355237	0.697285	0.851019	-0.230001	-0.206277	0.574868	-0.178214	0.86125	0.08836	0.668414	0.1141	1.189671	0.466596	0.995347	1.647532
-0.641132	-0.565798	0.006443	0.520269	0.059545	0.090983	0.694328	0.055211	0.846701	0.067704	0.681377	0.100734	0.696418	-0.058073	0.318334	1.291393
-0.672114	-0.251085	0.263175	0.646097	0.005358	0.121069	0.660413	-0.011023	0.75922	-0.059397	0.634709	0.057747	0.436763	-0.281214	-0.215895	1.113394
0.021947	-0.15325	0.263175	0.670653	0.056924	0.144419	0.610831	-0.029501	0.876021	0.103958	0.705281	0.186343	0.721187	-0.012131	0.278074	1.324501
0.430752	0.220265	0.535817	0.797488	0.389172	0.436982	0.79886	0.267423	0.963344	0.231116	0.780772	0.424435	0.720889	-0.040927	0.093962	1.258737
0.202986	-0.233277	0.314478	0.742685	0.221749	0.29081	0.68037	0.079166	0.926938	0.19149	0.706265	0.312087	1.03106	0.210499	0.727081	1.478989
0.049444	-0.07662	0.375616	0.765643	0.042238	0.087727	0.646657	0.083823	1.151764	0.402023	0.875564	0.620511	0.874452	0.173423	0.583789	1.360726
0.782832	0.075505	0.574679	0.812867	0.185988	0.255565	0.631089	0.026105	0.912448	0.249934	0.774649	0.328157	0.385068	-0.267056	-0.190402	1.072196
-0.0208820000000001	-0.024963	0.355548	0.709859	0.224702	0.313506	0.665131	0.1482	0.869122	0.133118	0.755824	0.337376	0.746496	0.045511	0.318869	1.383686
0.104247	0.071375	0.294787	0.609601	0.058423	0.16772	0.631089	0.047993	0.963237	0.170827	0.869261	0.569607	0.642993	-0.094641	0.237314	1.226325
-0.828753	-0.258598	0.058964	0.583884	0.381786	0.457131	0.699151	0.209222	0.811306	0.162296	0.757801	0.344197	1.029297	0.20635	0.727081	1.442678
-0.735702	0.012861	-0.037569	0.46003	0.11562	0.276745	0.649605	-0.00941499999999995	1.049986	0.393893	0.945534	0.643133	1.079921	0.259862	0.929508	1.393588
-1.481664	-0.184696	-0.281787	0.429864	-0.287118	-0.218586	0.378389	-0.309901	0.861995	0.181144	0.825872	0.480788	0.875303	0.016681	0.400563	1.242965
-1.481664	-0.051548	-0.281787	0.405305	-0.141767	-0.015155	0.42922	-0.205254	0.912448	0.203839	0.756811	0.396717	0.90077	0.095145	0.645318	1.364285
-1.358133	0.138706	-0.387072	0.4555	-0.168259	-0.015155	0.445974	-0.218293	0.839772	0.079728	0.668873	0.300974	0.565906	-0.22357	-0.153072	1.108899
0.53225	1.089032	0.50361	0.861416	-0.108923	0.130057	0.513051	-0.130838	0.620751	-0.112982	0.512218	0.021523	0.798332	-0.029191	0.318869	1.282426
-0.42429	0.87911	0.146339	0.711229	-0.035651	0.252122	0.545656	-0.034088	0.489248	-0.347679	0.425814	-0.084154	0.851536	0.065679	0.318334	1.337779
0.806804	1.405237	0.903023	1.012852	-0.088738	0.134717	0.477914	-0.161218	0.496126	-0.386523	0.328334	-0.19436	0.901694	0.10729	0.543552	1.331353
0.381487	1.240914	0.530774	0.941936	0.136105	0.397498	0.545656	0.027211	0.56133	-0.307291	0.388643	-0.075095	0.849392	0.165139	0.746762	1.465616
0.00706699999999993	0.937064	0.25104	0.815838	0.031755	0.317124	0.475836	-0.1121	0.817276	0.057578	0.667431	0.376666	0.746814	0.094698	0.359698	1.396849
-1.323511	0.312151	-0.299932	0.537348	-0.132999	0.234395	0.457424	-0.195199	0.86125	0.095879	0.756068	0.489668	1.057067	0.343466	0.849984	1.624387
0.282959	1.192151	0.547397	0.995334	-0.073225	0.322663	0.457941	-0.115849	1.036494	0.339521	1.004983	0.904163	1.236292	0.421873	1.09317	1.581615
-0.796787	0.370104	-0.045931	0.640631	-0.099952	0.262623	0.425309	-0.204263	0.868623	0.172196	0.887474	0.625491	1.266497	0.556739	1.321532	1.817288
1.102667	1.26352	0.651521	1.095503	0.025583	0.377016	0.40904	-0.107524	0.883194	0.114994	0.830875	0.609972	1.161986	0.356667	1.014341	1.615352
0.506941	0.81418	0.304522	0.950136	0.36437	0.818868	0.664315	0.222573	0.773557	0.066181	0.757102	0.413743	0.748902	-0.101727	0.153127	1.271221
1.642628	1.369935	1.006576	1.199229	-0.034003	0.377016	0.461112	-0.080838	0.802525	0.11081	0.744206	0.397828	1.268244	0.5214	1.160688	1.76225
0.53225	0.770409	0.470172	0.977832	0.025583	0.406989	0.528843	0.01236	1.067363	0.433271	0.848032	0.594424	0.697055	-0.118951	0.049488	1.321016
0.2297	0.864823	0.409417	1.00561	0.078992	0.497022	0.494208	-0.035392	1.296109	0.675385	1.111209	0.979816	1.111943	0.241189	0.81111	1.563312
-0.32888	0.48622	0.138135	0.855837	0.183296	0.490948	0.512036	0.017075	0.927946	0.139777	0.702345	0.344667	1.114915	0.254434	0.586552	1.507474
1.456398	1.18282	0.72294	1.210709	0.295891	0.638637	0.613402	0.128125	1.002384	0.203223	0.735454	0.381882	0.855439	-0.022706	-0.056509	1.337888
0.104247	0.48064	0.172804	0.981269	0.052281	0.466992	0.561542	0.040847	1.0475	0.336313	0.737556	0.335689	0.855968	-0.043824	-0.015015	1.38466
0.481587	0.80673	0.287444	1.037064	0.272297	0.70545	0.662718	0.174753	0.95141	0.228538	0.74074	0.40331	1.014015	0.183656	0.234704	1.564964
-0.387926	0.529039	-0.002552	0.888639	0.239576	0.589388	0.627733	0.184601	0.988952	0.400981	0.903309	0.570585	1.015447	0.222147	0.255593	1.68232
1.139136	1.250595	0.82286	1.321574	0.37959	0.795931	0.729262	0.30903	0.922393	0.304471	0.877722	0.478479	0.884005	0.167342	0.171921	1.635343
-0.16169	0.939636	0.246004	1.072576	0.269687	0.686805	0.745245	0.311867	0.855568	0.215453	0.834637	0.39458	0.805383	0.108111	0.130139	1.628019
0.966616	1.437464	0.87948	1.376303	0.389172	0.83105	0.762228	0.306791	0.975648	0.246268	0.880041	0.516246	0.699961	-0.064992	0.068082	1.507474
0.250951	0.948487	0.335069	1.149644	0.356426	0.891654	0.847733	0.364053	0.997878	0.346703	0.866058	0.493148	0.961929	0.336203	0.48449	1.726659
1.353001	1.912189	1.147168	1.558579	0.00917999999999999	0.507449	0.642697	0.074682	0.967849	0.285095	0.864902	0.516246	1.458772	0.817309	1.331971	2.054541
-0.033238	1.090289	0.441141	1.228733	0.023814	0.635405	0.692948	0.134392	1.30485	0.751378	1.160596	1.012798	0.884005	0.20597	0.109684	1.590184
0.838503	1.638891	0.939903	1.479449	0.236814	0.752303	0.74462	0.276988	1.20651	0.6587	1.116387	0.959387	1.016919	0.210491	0.17245	1.45041
-0.105154	0.975972	0.050832	1.343621	0.186013	0.929832	0.761039	0.396809	0.988952	0.405256	0.864902	0.577194	0.964641	0.116878	-0.139392	1.311036
0.176213	1.543878	0.563626	1.66639	0.420282	1.287444	0.966192	0.680767	0.965882	0.348994	0.907977	0.600222	1.043426	0.31113	0.13092	1.579507
-0.798884	1.12989	0.139733	1.262993	0.524148	1.369821	1.051976	0.749365	1.05409	0.364954	0.874272	0.638712	1.252057	0.53464	0.649579	1.735247
0.966616	2.145531	1.162669	1.771241	0.443117	1.134833	0.932037	0.625082	0.846717	0.233327	0.781624	0.396142	1.329579	0.673508	0.877266	1.914292
-1.051429	0.741204	0.024057	1.106312	0.394934	1.013091	0.966505	0.592089	0.898376	0.312667	0.881393	0.502713	1.406924	0.841957	1.06302	1.980477
0.861895	1.849736	0.968544	1.540132	0.221749	0.836035	0.829471	0.423153	0.824581	0.115465	0.689385	0.221951	1.898348	1.305366	1.903216	2.306932
-0.105154	1.01222	0.352076	1.238827	0.033831	0.563571	0.761628	0.284025	1.016766	0.32672	0.821297	0.472476	1.81457	1.145812	1.978146	2.275335
0.758828	1.509246	1.000174	1.485628	0.17999	0.707751	0.813217	0.306337	1.216774	0.728809	1.23155	1.086322	1.218373	0.589824	1.100581	1.902866
0.076877	1.111342	0.474725	1.18459	0.64392	1.172891	1.052533	0.734348	0.750616	0.010212	0.601392	0.078116	1.531084	0.924671	1.635707	2.174862
1.139136	1.895299	1.207345	1.647302	0.72459	1.145462	1.137755	0.739667	0.89129	0.170071	0.733365	0.238197	1.532259	0.865512	1.433541	2.132154
-0.454334	0.690754	0.157103	1.033469	0.254569	0.67759	0.932965	0.32866	1.303998	0.743399	1.183823	0.964466	0.698804	0.082276	0.026515	1.626055
0.2297	1.46326	0.923992	1.363517	0.362221	0.73559	0.847484	0.32866	0.942466	0.353855	0.905796	0.489668	1.608964	0.909322	1.945033	2.236825
0.2297	1.066844	0.45795	1.236845	0.589346	0.939397	0.898739	0.492154	1.280408	0.697615	1.238746	1.00179	0.959371	0.211853	0.588003	1.774449
0.481587	1.59143	0.863456	1.41158	0.362221	0.700893	0.745561	0.279064	1.140574	0.441134	0.992333	0.708371	1.191288	0.561407	1.183607	1.984466
-0.174356	0.965227	0.41348	1.156596	0.443117	0.733268	0.779808	0.385576	1.272596	0.59961	1.153775	0.994646	1.165069	0.448852	1.040256	1.895311
-0.828753	0.921976	0.341679	1.102663	0.182899	0.531269	0.660039	0.164958	0.985874	0.260677	0.904674	0.609972	1.063835	0.354197	0.857947	1.840566
-1.234286	0.413334	-0.15277	0.924156	0.248655	0.617326	0.677733	0.239431	0.890516	0.100101	0.828726	0.519716	0.775834	0.094682	0.380171	1.677848
-0.579462	0.771537	0.147509	1.104482	0.167984	0.587222	0.695036	0.177488	0.568324	-0.284776	0.435042	-0.162195	1.324542	0.609734	1.271928	2.085449
-0.0208820000000001	0.921976	0.508176	1.28311	0.557785	0.906737	0.763468	0.41504	0.707395	-0.077233	0.71427	0.26832	0.881167	0.161828	0.401178	1.665409
0.506941	1.407881	0.802765	1.355237	-0.015527	0.475154	0.624951	0.040847	0.787993	0.182813	0.909188	0.632781	1.064564	0.408426	0.91894	1.945606
0.076877	0.965227	0.468975	1.229031	0.364425	0.836035	0.79539	0.390626	0.765945	0.201839	0.962531	0.715254	1.295382	0.639891	1.326597	2.116248
-0.610248	0.647988	0.468975	1.257031	0.265193	0.782729	0.812171	0.32866	0.91263	0.290877	1.0431	0.798492	1.171705	0.560308	0.796731	2.039046
0.481587	1.321823	1.055526	1.56631	0.280834	0.790251	0.84606	0.293986	0.971429	0.358427	1.118985	0.928011	1.303087	0.644052	0.922401	2.141049
0.329422	1.260636	0.994817	1.623413	0.368751	0.792792	0.846289	0.32866	0.773188	0.140529	0.996399	0.600916	1.672506	1.048509	1.608071	2.447962
1.728319	1.626448	1.311258	1.873726	0.331397	0.635405	0.795936	0.259355	0.846578	0.130035	1.010312	0.654176	1.46226	0.880832	1.337664	2.318865
0.861895	1.616181	1.053556	1.683309	0.621222	1.110044	0.950162	0.461602	1.029613	0.372013	1.229746	0.965596	1.720089	1.205117	1.928432	2.49093
0.861895	1.437128	0.992547	1.714708	0.183385	0.579136	0.745882	0.148457	0.722319	-0.086164	0.830128	0.373036	1.511771	1.037923	1.49946	2.400618
0.40527	1.631851	0.960878	1.695781	0.424643	0.93783	0.849024	0.34073	0.868623	0.203839	1.10742	0.790896	1.768866	1.145812	1.903216	2.406951
1.139136	1.774814	1.098818	1.741171	0.288603	0.70111	0.730634	0.269518	0.708874	0.05589	1.023523	0.579868	1.586299	1.062269	1.493076	2.327816
0.076877	1.160445	0.57013	1.558579	0.053447	0.46392	0.612104	0.041154	0.737893	-0.030219	0.878033	0.481061	1.920164	1.355408	2.260213	2.528306
0.076877	1.352959	0.782871	1.685777	-0.069563	0.30972	0.511533	-0.0606	0.730833	0.01797	0.934656	0.594424	1.452082	0.855403	1.303319	2.147498
-0.048902	1.209555	0.586708	1.556229	0.23089	0.544241	0.580221	0.157583	0.687867	0.016582	0.912952	0.565413	1.402611	0.727762	0.998725	2.019373
1.205165	1.81746	1.386464	1.881546	0.263795	0.633089	0.580221	0.162294	0.470587	-0.292188	0.607743	0.074403	1.13963	0.433229	0.852357	1.856341
-0.299484	1.222306	0.558452	1.604221	0.176914	0.633089	0.579759	0.105791	0.565557	-0.157697	0.721157	0.302865	1.086495	0.39483	0.830569	1.848875
0.506941	1.532318	0.904924	1.656932	0.122999	0.45325	0.528843	0.066514	0.565557	-0.234749	0.676494	0.295986	0.671266	0.036203	0.029807	1.58862
0.506941	1.341424	0.79905	1.707216	0.042238	0.330257	0.495235	-0.021297	0.426328	-0.437004	0.446524	-0.104939	0.929728	0.161196	0.666351	1.736597
1.582506	1.901802	1.250983	1.960676	-0.090286	0.156392	0.425859	-0.13479	0.490904	-0.243328	0.609637	0.1141	0.61882	-0.063398	0.051247	1.499404
0.53225	1.317832	0.79905	1.728607	0.063036	0.237967	0.477914	-0.025867	0.795987	-0.001024	0.75814	0.422574	0.723162	-0.088502	0.029807	1.506303
0.381487	1.377355	0.888943	1.654505	-0.009345	0.269917	0.494208	-0.0606	0.730095	0.009189	0.702345	0.233735	0.930818	0.127893	0.400513	1.685056
-0.579462	0.898101	0.311619	1.426766	0.038569	0.390672	0.56062	-0.01212	0.766377	0.048715	0.720432	0.293662	0.985005	0.111301	0.318046	1.719283
-0.0208820000000001	1.162856	0.631633	1.575547	0.011513	0.300077	0.510041	-0.099932	0.802771	-0.00838999999999998	0.693479	0.240602	0.776259	0.023873	0.153127	1.692312
0.256359	1.044176	0.586708	1.573218	0.219033	0.533392	0.561542	0.057229	0.686024	-0.135751	0.705415	0.279853	0.933109	0.111301	0.214547	1.699618
0.885265	1.806755	1.235647	1.831439	0.071732	0.298194	0.510535	-0.082528	0.722319	-0.00838999999999998	0.811728	0.459639	0.983745	0.13207	0.482831	1.801451
-0.231924	0.898101	0.356587	1.374142	0.47453	0.745044	0.696862	0.311428	0.897863	0.256449	0.946248	0.670237	0.829677	0.098899	0.297288	1.812691
1.245218	2.081699	1.371179	1.884179	0.005358	0.451162	0.59437	-0.00289199999999998	0.604593	-0.093775	0.711658	0.261353	1.039676	0.329308	0.504763	2.011671
-0.105154	1.053872	0.418492	1.426766	0.255563	0.607292	0.677733	0.232281	0.83188	0.220841	0.860317	0.44226	1.40583	0.668712	1.146475	2.233909
0.277157	1.533304	0.66019	1.582606	0.005358	0.368441	0.575297	0.047235	1.000856	0.428723	1.068372	0.904764	1.903055	1.126907	1.970394	2.526589
0.122499	1.255864	0.553519	1.510434	0.430336	0.879351	0.847484	0.481915	0.552004	-0.108679	0.600189	0.119309	1.383704	0.717992	0.964365	2.289196
-0.318858	1.194469	0.643747	1.539228	0.309963	0.736628	0.795121	0.361078	0.98644	0.472573	1.130257	0.935815	0.937485	0.267854	0.464166	2.019559
-0.00561300000000003	1.133367	0.721609	1.563317	-0.07367	0.293247	0.639748	0.104861	0.942021	0.37203	1.036871	0.798492	1.223695	0.485914	1.044177	2.148266
0.430752	1.267845	0.692978	1.613826	0.134934	0.562427	0.776987	0.29668	0.743868	0.144691	0.901	0.532967	0.989012	0.288386	0.422385	2.015608
0.558526	1.451151	0.843976	1.666768	0.086662	0.560098	0.811421	0.291646	0.765945	0.134085	0.855795	0.502713	1.041146	0.372392	0.796731	2.101381
0.430752	1.255649	0.648094	1.565706	0.366094	0.879351	0.966346	0.559246	0.384715	-0.366414	0.532087	-0.058961	1.092444	0.451696	0.796731	2.120793
0.71073	1.476076	0.965717	1.69326	0.518534	0.993506	1.000772	0.588378	0.590508	-0.024433	0.720432	0.117892	1.640524	0.870598	1.541423	2.404807
0.303315	1.316906	0.860041	1.64029	0.389172	0.780255	0.881285	0.44947	0.641838	-0.00528000000000001	0.809539	0.291457	1.924855	1.140449	2.112667	2.551744
1.542463	2.033643	1.640557	2.069222	0.32946	0.689149	0.847239	0.36551	0.393416	-0.357701	0.530208	-0.138738	1.402611	0.713046	1.350087	2.25609
0.481587	1.292296	0.786598	1.659371	0.263795	0.661139	0.795661	0.348256	0.715184	0.159533	0.926514	0.602695	1.688138	0.904246	1.903216	2.426219
1.817019	2.374468	1.595673	2.063565	0.143932	0.544241	0.795661	0.348256	0.700247	0.151054	0.901	0.488253	1.58139	0.7621	1.753416	2.263109
0.303315	1.401054	0.754166	1.63298	0.485831	0.98807	0.966666	0.560878	0.890516	0.396168	1.078472	0.768266	1.399485	0.561407	1.528474	2.18939
1.944792	2.512225	1.625942	2.087163	-0.069563	0.307761	0.623805	0.093267	0.458527	-0.083483	0.696589	0.161649	1.27186	0.487354	0.998725	2.081251
0.583294	1.77144	0.876074	1.704745	-0.030131	0.303889	0.641569	0.123308	0.758726	0.210213	0.932332	0.692448	1.502475	0.757204	1.587507	2.246988
1.542463	2.340296	1.341623	1.957971	-0.03634	0.275543	0.555337	0.031299	0.656881	0.100554	0.868602	0.496821	1.686812	0.933708	1.878222	2.386226
0.71073	1.866647	0.815199	1.707216	0.317801	0.777797	0.863801	0.42009	0.722319	0.140529	0.811728	0.511203	1.348905	0.570799	1.243571	2.077367
1.394347	2.408945	1.341623	1.984348	0.14995	0.56794	0.69261	0.229605	0.736661	0.191216	0.769807	0.44226	1.559864	0.806426	1.391796	2.239852
1.798349	2.400261	1.37138	2.013503	0.00917999999999999	0.447034	0.658576	0.140703	0.693124	0.140529	0.840735	0.55701	1.426837	0.73759	1.569968	2.227809
1.117106	2.349201	1.131639	1.884179	-0.077753	0.300077	0.607176	0.056709	0.795554	0.285964	0.958971	0.677614	1.297247	0.708182	1.386202	2.212601
0.583294	1.638891	0.619765	1.628171	-0.017725	0.358496	0.624184	0.047235	0.591679	-0.077236	0.734408	0.346674	1.193788	0.624821	1.183607	2.190143
0.686638	1.77144	0.79905	1.733593	0.248655	0.679871	0.812688	0.279242	0.693925	0.076379	0.880269	0.535403	0.880627	0.257367	0.730632	1.984366
1.542463	1.901802	1.236729	1.852606	0.0361	0.475154	0.778358	0.195631	0.781195	0.086668	0.810631	0.44381	1.089391	0.482735	1.081821	2.094005
0.81509	1.749921	0.888943	1.704745	0.248655	0.617326	0.830482	0.343201	0.671897	0.047166	0.809539	0.436706	0.883418	0.279426	0.567945	2.043536
1.908843	1.966677	1.161006	1.831439	0.00917999999999999	0.354624	0.710621	0.107297	0.591679	-0.204213	0.575244	0.104358	0.725052	0.103136	0.380171	1.812008
1.482485	1.92136	0.994817	1.805091	0.416136	0.826128	0.898955	0.431534	0.781195	0.183008	0.943897	0.662885	1.32553	0.693339	1.206735	2.18814
0.686638	1.582299	0.770398	1.597152	0.377638	0.861342	0.881959	0.45864	0.766377	0.155609	0.902153	0.647435	0.98437	0.320361	0.791606	1.910144
-0.00561300000000003	1.28006	0.558452	1.496716	0.284926	0.689149	0.796496	0.4022	0.686024	0.155609	0.932332	0.685018	1.270033	0.654211	1.344742	2.191104
0.686638	1.595889	0.680921	1.621054	0.371868	0.868961	0.864968	0.50798	0.832001	0.331899	0.992747	0.844006	1.168307	0.560308	1.100581	2.085953
0.149384	1.498891	0.485735	1.494473	0.096064	0.570147	0.711979	0.274374	0.656881	0.136673	0.858048	0.639338	1.09014	0.481212	0.813515	2.043019
1.522458	2.068967	1.118033	1.876319	0.215801	0.749867	0.762842	0.32351	0.533585	0.086668	0.825682	0.488253	0.831775	0.361241	0.00501099999999999	1.929649
1.095068	1.865736	0.725638	1.757456	0.242736	0.843639	0.88219	0.434357	0.730095	0.136673	0.871993	0.677056	1.038955	0.520243	0.794026	2.102108
0.277157	1.743145	0.636244	1.707216	0.00917999999999999	0.548691	0.728266	0.197632	0.715924	0.22271	0.912615	0.654801	0.960631	0.40656	0.546365	2.043536
-0.00561300000000003	1.328869	0.362704	1.508116	-0.038388	0.487859	0.779512	0.25446	0.555711	0.048715	0.766579	0.465272	1.142793	0.485914	1.002395	2.204767
1.117106	1.911362	0.981555	1.86305	0.188881	0.696276	0.830742	0.382748	0.577809	0.048715	0.810631	0.511203	0.959997	0.397312	0.774493	2.090741
1.689582	1.860566	0.981555	1.886826	0.167984	0.511728	0.78041	0.28902	0.526708	0.029703	0.813933	0.518432	1.375225	0.722837	1.517141	2.372656
1.266573	1.75367	1.055526	1.86305	0.114277	0.479327	0.76443	0.230188	0.446577	-0.175035	0.711658	0.314563	1.169986	0.510746	0.903213	2.169965
1.456398	1.667724	1.086839	1.852606	-0.079501	0.266241	0.698376	0.039917	0.657866	0.04569	0.887071	0.625491	1.401559	0.634396	1.523816	2.3512
0.481587	1.292304	0.737904	1.654505	0.087447	0.384728	0.716344	0.143527	0.628863	0.13145	0.976437	0.678304	1.606495	0.894158	1.995982	2.433033
0.608025	1.476076	0.843976	1.728607	0.021512	0.268071	0.631958	0.034234	0.484109	-0.119638	0.754739	0.339708	1.397454	0.664423	1.827765	2.376964
0.049444	1.083717	0.480237	1.549255	0.200834	0.499076	0.717503	0.181095	0.46386	-0.091622	0.766579	0.348799	1.374212	0.649417	1.439708	2.267287
1.56248	1.768572	1.26629	1.873726	-0.11888	0.116093	0.531343	-0.118363	0.377525	-0.178215	0.748373	0.252527	1.11341	0.478135	1.188257	2.184016
1.817019	1.660547	1.100494	1.802544	0.167984	0.469009	0.649605	0.112381	0.485936	-0.129577	0.80845	0.431426	1.24377	0.649417	1.415644	2.222809
2.251488	1.814695	1.416554	1.91842	0.096064	0.475154	0.647902	0.152886	0.499434	-0.060575	0.766579	0.399636	1.13963	0.453415	1.146475	2.062494
1.835711	1.75367	1.207345	1.844911	-0.017725	0.300077	0.545176	-0.016714	0.479221	-0.099673	0.790209	0.355728	1.007433	0.385863	1.059122	2.046639
1.689582	1.789389	1.057774	1.821214	-0.011528	0.416855	0.578844	0.036493	0.450477	-0.118703	0.831954	0.408542	0.904162	0.277871	0.586552	1.894769
0.71073	1.401726	0.53037	1.573218	0.167984	0.537685	0.629388	0.141935	0.428396	-0.127742	0.731293	0.233735	1.085794	0.444307	1.100581	2.112781
1.542463	1.956741	1.162669	1.847463	0.114277	0.507449	0.629808	0.124625	0.724713	0.19149	0.982008	0.685643	1.136622	0.444307	1.386202	2.108796
0.430752	1.316507	0.575047	1.549255	0.287343	0.717117	0.731695	0.348098	0.645149	0.19149	0.954281	0.625491	1.295382	0.649417	1.391796	2.249112
2.055596	2.549033	1.37138	2.007988	0.200834	0.628506	0.715213	0.299096	0.861995	0.375196	1.073498	0.88159	1.347921	0.68362	1.719161	2.287679
0.176213	1.207883	0.485735	1.544669	0.248655	0.747447	0.800117	0.31628	0.984909	0.633014	1.320635	1.19715	1.373209	0.791508	1.819689	2.306932
1.670237	2.305088	1.326454	1.928944	0.194859	0.626238	0.698762	0.262625	0.948744	0.481691	1.177777	1.06975	1.088653	0.546117	1.165061	2.085449
0.202986	1.2806	0.485735	1.439875	0.410402	0.866405	0.834117	0.450869	0.919811	0.441798	1.147607	0.926708	0.750474	0.161828	0.463197	1.863857
1.012034	1.725167	0.997361	1.716364	-0.164733	0.271777	0.512542	-0.065143	1.035648	0.540312	1.253283	1.190581	0.880097	0.374537	0.772056	1.961221
0.35548	1.352959	0.652691	1.511749	0.242736	0.712402	0.699543	0.235892	0.579215	0.01797	0.723564	0.300605	0.698436	0.241189	0.442105	1.802485
0.35548	1.389007	0.608139	1.457369	-0.131518	0.269917	0.496796	-0.01309	0.782425	0.287503	1.015675	0.821326	0.671579	0.153231	0.235516	1.725787
-0.048902	1.196818	0.519155	1.3292	0.114277	0.561411	0.582575	0.09978	0.587541	0.064608	0.822387	0.54258	0.904683	0.424114	0.769898	1.865586
-0.174356	1.173285	0.341679	1.303178	0.233636	0.682166	0.616078	0.226401	0.595886	0.09219	0.859734	0.596588	0.878562	0.31149	0.728721	1.815888
0.282959	1.436952	0.629746	1.425004	0.272297	0.740286	0.650473	0.282595	0.551991	0.00644599999999999	0.803065	0.512551	1.446794	0.864785	1.845795	2.181021
0.506941	1.544823	0.596751	1.481279	0.091216	0.589388	0.584021	0.107766	0.415126	-0.080667	0.742146	0.369662	1.241189	0.703337	1.463448	2.073555
-0.299484	1.484857	0.569038	1.457369	0.091216	0.505333	0.532877	0.112381	0.653323	0.237553	0.962349	0.791221	1.215026	0.673982	1.36285	2.077373
-0.174356	1.220485	0.085861	1.28311	-0.015309	0.503232	0.533393	0.025124	0.667071	0.277076	0.964658	0.753309	1.759132	1.178148	2.416186	2.473138
1.183166	2.011749	0.895473	1.711557	-0.021536	0.416855	0.482204	0.00786299999999995	0.551991	0.016582	0.746282	0.44381	0.956967	0.345217	0.89364	1.892337
0.131553	1.173285	0.147509	1.383367	-0.160887	0.237967	0.347424	-0.222728	0.501256	-0.012508	0.776274	0.466754	0.955262	0.361106	0.830569	1.931063
0.459203	1.366092	0.558103	1.474845	0.091216	0.531269	0.499994	0.037823	0.399652	-0.108683	0.749425	0.360682	1.423688	0.840394	1.811952	2.289314
0.706581	1.425323	0.838955	1.576619	0.052281	0.442967	0.450516	-0.022943	0.284845	-0.302022	0.61541	0.203797	0.722811	0.219499	0.400513	1.780648
0.282959	1.448956	0.701841	1.502986	0.052281	0.382778	0.383902	-0.04916	0.271915	-0.21565	0.762329	0.339708	1.212618	0.5337	1.216282	1.962252
0.131553	1.484627	0.552444	1.349151	0.177281	0.582934	0.403019	0.036962	0.14508	-0.485133	0.568588	0.153645	0.877586	0.29398	0.646473	1.766334
-0.764931	0.741204	0.032655	1.091991	0.156658	0.55084	0.388336	0.027995	0.340949	-0.197824	0.76998	0.492866	0.799877	0.123736	0.503121	1.671103
-0.920318	0.908909	0.111582	1.090252	0.05025	0.522932	0.321445	-0.054082	0.306148	-0.102377	0.768945	0.440297	0.903147	0.260577	0.503121	1.687075
-1.166436	0.581108	-0.230661	0.987079	0.089084	0.492958	0.35723	0.0146359999999999	0.422305	-0.093323	0.808514	0.620511	0.746496	0.08244	0.543552	1.631184
-0.487691	0.995087	0.023889	1.138366	-0.234693	0.078299	0.191555	-0.2955	0.337384	-0.19835	0.675528	0.45613	0.668848	0.020644	0.645318	1.669951
-1.446415	0.538455	-0.274409	0.962922	-0.109981	0.195895	0.258228	-0.161978	0.43773	-0.04574	0.776675	0.568087	1.055827	0.40427	1.134173	1.845252
-0.887834	0.893399	-0.063644	1.114324	-0.077303	0.283661	0.342089	-0.101801	0.409456	-0.093323	0.702352	0.501611	0.540022	-0.061968	0.298109	1.569538
-0.610594	0.626785	-0.107352	1.038638	-0.208829	0.104983	0.2425	-0.269283	0.43773	-0.035852	0.746932	0.501611	0.746188	0.066349	0.808981	1.764558
-0.855467	0.714337	0.015335	1.11258	-0.333527	0.018776	0.22451	-0.303842	0.230613	-0.312767	0.55939	0.202644	0.333037	-0.363979	-0.156046	1.498159
-0.457294	0.506815	-0.045931	1.114324	-0.162663	0.162865	0.291925	-0.230596	0.252612	-0.34146	0.560294	0.248502	0.797612	0.087139	0.686183	1.729338
0.158793	1.050596	0.409417	1.343171	-0.175481	0.136299	0.258228	-0.265102	0.123864	-0.494404	0.416753	-0.103297	0.746496	-0.048662	0.482393	1.690536
-0.487691	0.502015	-0.019898	1.088523	-0.4127	-0.185316	0.124885	-0.471174	0.290267	-0.265329	0.693338	0.346613	0.823878	0.169344	0.768014	1.77157
-0.764931	0.815912	0.128978	1.085101	-0.31378	-0.073037	0.161862	-0.388537	0.111656	-0.436927	0.550866	0.061207	0.721187	0.037571	0.58445	1.722391
-0.334702	0.625848	0.102632	1.081724	-0.195418	-0.044762	0.147936	-0.379341	0.249718	-0.265571	0.635662	0.287526	0.926681	0.276115	1.011269	1.838187
-0.487691	0.697455	-0.089559	1.004734	-0.215288	0.070825	0.0833499999999999	-0.46836	0.315327	-0.227714	0.723154	0.398939	0.668848	0.00490000000000002	0.522934	1.591779
-0.457294	0.580854	-0.158786	0.950413	-0.313794	-0.193679	0.070587	-0.462889	0.097516	-0.464886	0.473713	0.041763	0.720047	0.083163	0.685047	1.581936
-1.166436	0.433651	-0.245613	0.87669	-0.52304	-0.280963	-0.0117700000000001	-0.603218	0.175349	-0.303628	0.529675	0.094234	0.720319	0.087139	0.62448	1.623855
-1.289028	0.44987	-0.288967	0.902271	-0.241885	0.034286	0.089558	-0.432358	0.247043	-0.275138	0.675528	0.323809	0.797967	0.226884	0.847883	1.714336
-1.323511	0.44987	-0.350507	0.829834	-0.502671	-0.310408	-0.029007	-0.616744	0.10755	-0.360559	0.555813	0.110699	0.669082	0.00880999999999998	0.62448	1.649781
0.582734	1.30773	0.51001	1.331528	-0.613517	-0.36829	-0.0481929999999999	-0.70371	-0.0141110000000001	-0.560519	0.384567	-0.13913	0.976976	0.218645	1.190026	1.759641
-1.010425	0.430297	-0.140911	0.930918	-0.490167	-0.220889	0.065232	-0.568476	0.097516	-0.417815	0.545424	0.159792	1.055827	0.366733	1.334973	1.883726
0.485005	1.029944	0.406266	1.331528	-0.568361	-0.396787	0.065232	-0.632348	-0.018579	-0.599535	0.31503	-0.232186	1.029875	0.337904	1.152831	1.890876
-0.2118	0.778595	0.120036	1.25998	-0.156871	0.011666	0.21349	-0.328591	0.231292	-0.389224	0.518349	0.107271	0.953641	0.152788	0.910286	1.790908
-0.334702	0.834151	0.146339	1.160601	-0.189477	0.038416	0.180702	-0.392577	0.171623	-0.494404	0.434185	-0.044175	0.901694	0.17752	0.727081	1.748709
-0.855467	0.44987	-0.107352	1.033653	-0.326944	-0.133473	0.146275	-0.568476	0.293485	-0.322528	0.578854	0.182729	1.005065	0.284492	0.970371	1.829525
-0.275427	0.592549	0.224544	1.254456	-0.057241	0.131596	0.228342	-0.427171	0.18386	-0.398795	0.568588	0.097361	0.92766	0.20635	0.929508	1.829525
0.024699	0.683189	0.32886	1.302089	-0.096263	0.103452	0.178281	-0.508479	0.305921	-0.312953	0.684352	0.33058	0.851089	0.156887	0.625383	1.790908
0.294037	0.904527	0.416156	1.329628	-0.280599	-0.040674	0.127371	-0.56456	0.19001	-0.34146	0.584493	0.103949	0.798332	0.091134	0.563694	1.738275
-0.579575	0.824798	0.243418	1.188165	-0.043379	0.250422	0.261209	-0.388537	0.409456	-0.092506	0.789145	0.433343	0.669836	0.020644	0.216347	1.703019
0.185971	1.332395	0.82286	1.492305	0.207323	0.514836	0.443631	-0.118968	0.280853	-0.293432	0.611547	0.150027	1.055827	0.473404	1.071069	1.99776
-0.952918	0.771537	0.024057	1.097276	0.17477	0.401251	0.458261	-0.123291	0.334538	-0.157697	0.676407	0.243123	0.928164	0.346455	1.09317	1.985935
0.931933	1.904036	0.923992	1.628648	-0.260625	-0.00809200000000002	0.340032	-0.351666	0.470182	-0.003661	0.87915	0.536808	0.955262	0.388423	0.932092	2.020005
-0.203101	1.227878	0.318028	1.383367	-0.00908500000000001	0.285427	0.472395	-0.118897	0.303286	-0.282327	0.574282	0.107405	0.722468	0.144461	0.58537	1.896966
-0.174356	1.532429	0.652691	1.381286	-0.193878	0.114464	0.402397	-0.283306	0.483317	-0.041581	0.806285	0.424435	0.749671	0.240061	0.545163	1.911711
-1.018473	0.931138	0.077774	1.154721	-0.054421	0.172702	0.451679	-0.179341	0.489918	-0.070636	0.777336	0.424435	0.853906	0.327489	0.772056	1.961641
0.583294	1.992282	0.920875	1.564032	0.005102	0.259065	0.501631	-0.140361	0.259074	-0.427427	0.544271	0.017982	1.527623	0.986253	2.061457	2.435134
-0.767239	0.880765	0.166922	1.182674	0.072876	0.382778	0.550102	-0.066434	0.575642	-0.051647	0.809539	0.461307	1.111943	0.596572	1.202113	2.123498
0.583294	1.933052	0.876074	1.561767	-0.147001	0.112849	0.449939	-0.265934	0.804983	0.170827	0.958971	0.806403	0.749283	0.327489	0.545163	1.908007
0.303315	1.437464	0.664524	1.383367	0.31671	0.580813	0.686514	0.122659	0.45259	-0.254424	0.617365	0.123857	0.774611	0.314394	0.852357	1.939261
0.430752	1.532035	0.664524	1.455229	0.105719	0.375125	0.584999	-0.088803	0.54705	-0.169045	0.703364	0.328157	0.877586	0.359421	0.728721	1.912615
-0.610248	0.967353	0.246004	1.167776	-0.299655	-0.097404	0.400546	-0.424294	0.792026	0.162869	1.034956	0.881901	1.083752	0.573569	1.216282	2.035468
0.2297	1.227878	0.519155	1.28763	0.159218	0.427305	0.636474	-0.00300800000000001	0.684723	0.068061	0.890802	0.643133	1.290896	0.709342	1.440092	2.142584
-0.174356	0.850536	0.263175	1.188165	-0.132999	0.078299	0.467184	-0.256707	0.662962	0.125498	0.905796	0.620511	1.057701	0.540075	0.992256	1.943829
0.104247	1.299076	0.6411	1.359185	0.058423	0.250422	0.534961	-0.118989	0.748635	0.221927	0.965817	0.821921	0.875741	0.371034	0.746762	1.806696
-0.117097	0.835722	0.287444	1.105714	0.058423	0.280174	0.551635	-0.07161	0.634438	0.106779	0.873609	0.63601	0.850651	0.292943	0.768014	1.833076
-0.67294	0.705666	0.059175	1.057703	-0.193878	0.076776	0.467184	-0.248265	0.656215	0.106779	0.872513	0.65148	1.005065	0.424445	1.052202	1.829525
-0.920318	0.491097	-0.055277	0.955023	-0.048161	0.136299	0.484414	-0.149116	0.842222	0.316815	0.990002	0.904282	0.669324	0.119911	0.645318	1.696138
-1.166436	0.3197	-0.186875	0.852561	0.162699	0.367709	0.553717	-0.0245070000000001	0.656215	0.030531	0.756068	0.494646	0.720047	0.079204	0.807122	1.643828
-0.579575	0.687598	0.268173	0.996888	-0.108923	0.101935	0.404271	-0.22176	0.649491	0.049307	0.742146	0.494646	0.90077	0.247372	1.071069	1.750679
-0.579575	0.687598	0.058964	0.9459	-0.12904	0.042668	0.322131	-0.311348	0.728159	0.201667	0.91629	0.71082	1.157653	0.570929	1.394001	1.922118
0.267117	1.014472	0.553521	1.165578	0.107438	0.362301	0.424604	-0.097495	0.614366	-0.00809699999999999	0.710237	0.398939	0.952606	0.247372	1.111933	1.731378
-0.0317880000000001	1.106138	0.432983	1.09251	-0.050954	0.245408	0.425874	-0.118833	0.605931	0.118215	0.812714	0.458098	0.668623	-0.00286500000000001	0.583789	1.533591
-0.305021	1.120027	0.19821	0.941481	-0.090959	0.184607	0.377089	-0.157284	0.791058	0.391509	0.946226	0.65859	0.333456	-0.360054	-0.23089	1.186615
-1.411309	0.569581	-0.22021	0.79459	0.0591250000000001	0.417997	0.493089	-0.00337999999999994	0.551991	0.145218	0.713256	0.248502	0.642795	-0.060133	0.644423	1.553007
-0.275427	1.189987	0.379711	1.040081	-0.228824	0.007564	0.311267	-0.251455	0.514731	0.0607	0.583544	0.090796	0.333564	-0.334999	0.055451	1.33905
0.240133	1.267518	0.362794	1.09251	-0.163733	0.063694	0.328423	-0.208751	0.653323	0.155609	0.739083	0.437528	0.56551	-0.170794	0.319646	1.429785
0.633038	1.518481	0.586629	1.214772	-0.385167	-0.197067	0.245536	-0.345851	0.631424	0.176478	0.901329	0.533017	0.591474	-0.192043	0.441516	1.501214
-0.305021	0.972454	0.128681	0.942943	-0.241885	-0.080716	0.345565	-0.243145	0.479221	0.031291	0.684352	0.189344	0.745889	-0.063922	0.725705	1.585645
-0.855467	0.972454	0.0245570000000001	0.894965	-0.157309	0.007564	0.344865	-0.178962	0.545242	0.08836	0.79988	0.346613	0.7206	-0.084969	0.604489	1.491547
-0.579575	0.682182	-0.097518	0.872355	-0.026917	0.155055	0.360625	-0.131859	0.609496	0.216403	0.859734	0.435378	0.565633	-0.199368	0.62448	1.449158
0.062755	1.468049	0.476612	1.151885	-0.026917	0.155055	0.360625	-0.153301	0.492674	-0.064295	0.571418	0.044645	0.668848	-0.142202	0.888677	1.566839
0.062755	1.271089	0.355548	1.080051	-0.313638	-0.1347	0.243255	-0.393668	0.470587	-0.01565	0.659392	0.127003	0.436685	-0.353033	0.072632	1.383686
0.607908	1.107863	0.355548	1.133118	-0.0593359999999999	0.097466	0.376416	-0.213367	0.46197	-0.130886	0.502049	-0.018312	0.540712	-0.371102	0.359406	1.419906
0.681999	1.765708	0.706636	1.315361	-0.36619	-0.102644	0.290489	-0.394654	0.541958	0.01555	0.663412	0.117197	0.541416	-0.273851	0.318046	1.522571
0.53225	1.461795	0.463949	1.219528	-0.24158	-0.040674	0.355222	-0.282899	0.439804	-0.052426	0.63737	0.100734	0.670382	-0.205946	0.503121	1.515674
0.506941	1.591121	0.552444	1.375117	-0.142707	0.137895	0.487239	-0.127442	0.388658	-0.209372	0.549989	-0.094551	0.645444	-0.277541	0.565291	1.506303
1.891918	1.967837	1.091581	1.572191	0.186828	0.345207	0.636942	0.106597	0.562623	0.047024	0.729933	0.167111	0.802464	-0.104199	0.791606	1.642153
1.689582	2.081699	0.984374	1.609443	-0.141767	0.05461	0.567812	-0.118363	0.693124	0.187428	0.868383	0.376666	0.778526	-0.088502	0.504763	1.61352
0.71073	1.497393	0.441141	1.287129	0.221911	0.466992	0.785321	0.238829	0.956519	0.535824	1.139464	0.783489	0.963949	0.178228	1.044177	1.886706
0.329422	1.412999	0.41348	1.234874	0.203964	0.501147	0.817588	0.179532	1.132917	0.686251	1.218449	0.904394	1.1496	0.299917	1.397708	2.027499
-0.203101	1.063942	0.263175	1.160381	0.060631	0.364417	0.781337	0.107297	1.176477	0.682388	1.275333	0.919363	0.808641	-0.056232	0.443794	1.702088
-0.484469	1.10048	0.157103	1.110007	0.17999	0.479327	0.832373	0.168751	1.000856	0.486885	1.176737	0.745509	1.257021	0.426828	1.15118	2.015944
1.309274	1.736039	0.774391	1.568601	0.325914	0.745044	0.917026	0.291606	0.949478	0.418928	1.194798	0.866718	1.331666	0.442423	1.433541	2.004005
0.734794	1.640512	0.652691	1.496716	0.287343	0.602721	0.882662	0.217739	0.839289	0.353855	1.175274	0.722272	1.542043	0.668712	1.760943	2.160488
1.205165	1.768815	0.911436	1.640213	0.254569	0.637737	0.88219	0.22742	0.95696	0.528104	1.303576	0.889771	1.571282	0.653789	1.886505	2.192277
1.287925	1.877129	0.818903	1.726132	0.173989	0.609602	0.847733	0.187953	0.964468	0.411011	1.215744	0.752855	1.151404	0.292896	1.002395	1.972813
0.2297	1.555708	0.6411	1.546956	-0.005333	0.43774	0.761628	0.096314	0.890901	0.34279	1.20321	0.821441	1.046606	0.242778	0.91894	1.929649
0.202986	1.484627	0.563626	1.604221	0.17999	0.731651	0.915354	0.281565	1.105748	0.595818	1.326348	0.951502	1.41606	0.693287	1.558995	2.267287
-0.32888	1.116679	0.369049	1.450865	0.054504	0.64964	0.931862	0.234511	1.30603	0.895243	1.54993	1.256616	1.179946	0.390901	1.085995	2.032047
-0.203101	1.366092	0.563626	1.58024	0.141123	0.677846	0.948788	0.279064	1.476861	1.023843	1.635965	1.385271	0.810399	0.192522	0.464166	1.882453
-0.203101	1.23507	0.290516	1.455347	0.32946	0.920748	1.034274	0.435323	1.240475	0.717255	1.340261	0.882504	0.944566	0.26088	0.381372	1.937802
-0.231924	1.222306	0.513693	1.508116	0.719172	1.262944	1.188786	0.679117	0.929246	0.2995	0.983455	0.301694	1.31255	0.589233	1.397708	2.241103
-0.231924	1.258383	0.603252	1.508116	0.356426	0.879351	1.068881	0.476816	1.368063	0.876518	1.489805	1.042285	1.651418	0.851171	1.928432	2.338251
1.245218	2.021659	1.024096	1.844515	0.616356	1.140585	1.20591	0.713212	1.318662	0.702611	1.258095	0.729901	1.413711	0.565078	1.660131	2.17697
0.430752	1.556365	0.811753	1.714708	0.681187	1.204705	1.188805	0.70143	1.504576	0.979743	1.554806	1.142071	1.101666	0.301973	0.735288	1.984772
1.095068	1.916383	1.189468	1.897545	0.207163	0.553206	0.897907	0.269183	1.504576	0.961048	1.525497	1.111433	1.734701	0.915696	1.895137	2.409321
0.303315	1.736039	1.008337	1.738633	0.784616	1.204705	1.223005	0.76311	1.14647	0.512215	1.168338	0.500522	1.528359	0.733031	1.506173	2.370594
0.40527	1.906186	1.022117	1.743723	0.643109	0.993506	1.086394	0.58997	1.427992	0.869482	1.539342	1.126006	1.944665	1.137712	2.365212	2.64787
-0.00561300000000003	1.739205	0.779405	1.66429	0.364425	0.762212	1.017963	0.42009	1.427992	0.911769	1.465253	0.966375	1.339306	0.525022	1.253628	2.137993
0.686638	2.078407	1.037851	1.788961	0.784616	1.259905	1.22301	0.780118	1.196628	0.649062	1.269122	0.661208	1.55118	0.727998	1.439708	2.252088
0.838503	1.982231	1.008337	1.78639	0.457559	0.84879	1.086485	0.58319	1.194896	0.58445	1.246469	0.631265	1.65283	0.880832	1.886505	2.419931
0.40527	2.18247	1.098818	1.765081	0.457559	0.79535	1.086306	0.554057	1.395452	0.876518	1.488224	1.042285	1.650017	0.821528	1.903216	2.391971
-0.00561300000000003	1.988639	0.918024	1.608998	0.588739	0.93783	1.103611	0.605513	1.30603	0.736103	1.32337	0.897508	1.073245	0.272367	0.732819	1.929649
-0.16169	1.686085	0.598612	1.613826	0.528839	0.820811	1.069447	0.588378	1.379342	0.773729	1.380427	1.003879	1.333795	0.485914	1.123423	2.121589
1.353001	2.421276	1.235647	1.892158	0.648576	1.02683	1.20596	0.711984	1.468709	0.834448	1.335784	0.981221	1.704916	0.807084	1.743875	2.372656
0.40527	1.81986	0.721609	1.712198	0.267316	0.583728	0.984025	0.368293	1.550005	0.993417	1.469681	1.232177	1.755446	0.94543	2.028777	2.439222
1.245218	2.217647	1.221365	1.834028	0.512917	0.815703	1.03552	0.476816	1.579849	0.981646	1.495757	1.193565	1.882796	1.018813	2.228511	2.449789
1.095068	2.156235	0.94985	1.783833	0.713752	0.965689	1.1208	0.639731	1.647939	1.133776	1.498897	1.126006	1.645882	0.821528	1.819689	2.312724
0.533722	2.165307	1.100494	1.781289	0.311968	0.635405	0.950539	0.36551	1.365626	0.645055	1.185038	0.72999	1.750992	0.989133	2.186694	2.50742
-0.260824	1.521808	0.407422	1.446432	0.485831	0.665831	0.984682	0.444418	1.187057	0.531615	1.136289	0.600916	1.41027	0.624201	1.552395	2.238035
1.139136	2.141814	1.147168	1.844911	0.170927	0.307761	0.848759	0.210111	0.905876	0.173174	0.881458	0.259135	1.280592	0.490636	1.165061	2.109425
0.583294	1.676073	0.725638	1.568601	0.56235	0.805686	1.036371	0.48078	1.09802	0.361861	0.985922	0.40331	1.045796	0.247274	0.546365	1.917907
0.202986	1.722572	0.847401	1.56631	0.475785	0.661139	0.968077	0.362868	1.149585	0.460119	1.073753	0.540273	1.358232	0.540298	1.183607	2.085953
-0.641132	1.245735	0.424298	1.36773	0.848804	1.076714	1.121052	0.653075	1.193307	0.528104	1.146167	0.639338	1.571282	0.663608	1.433541	2.164589
0.71073	1.986652	1.010601	1.702287	0.594893	0.896792	1.103975	0.569436	1.406708	0.904681	1.385282	1.00304	1.070757	0.204347	0.608013	1.851326
-0.32888	1.162856	0.424298	1.418014	0.481454	0.691508	1.069893	0.468677	1.406708	0.844304	1.368489	0.94236	1.540782	0.589824	1.368163	2.136972
0.908611	1.887641	1.102451	1.694989	0.627388	0.954971	1.155093	0.608686	1.266502	0.656128	1.235126	0.715254	1.752465	0.81144	1.986887	2.383377
-0.358361	1.436952	0.513693	1.396103	0.167984	0.39471	0.899623	0.200445	1.126413	0.418928	1.043193	0.465272	1.335967	0.401926	1.025291	2.039507
1.309274	2.229935	1.118033	1.768761	0.245511	0.358496	0.866476	0.159228	1.104541	0.418928	1.043193	0.358801	1.516678	0.560308	1.457533	2.250491
0.608025	1.627525	0.697285	1.518449	0.633659	0.795931	0.985768	0.428851	0.949478	0.157584	0.888286	0.194334	1.539533	0.570799	1.618313	2.261517
0.329422	1.640512	0.936795	1.568601	0.444773	0.626238	0.900084	0.250226	0.883452	0.187428	0.89991	0.247495	1.016178	0.119713	0.877266	2.058511
0.734794	1.461393	0.664524	1.468254	0.427599	0.628506	0.899397	0.267423	1.134111	0.404823	1.059535	0.549783	1.355029	0.493649	1.350087	2.28084
0.381487	1.376938	0.90805	1.587901	0.52976	0.513892	0.881506	0.328588	1.023518	0.285263	1.069633	0.565413	1.09403	0.347848	0.979709	2.222809
0.35548	1.219342	0.619765	1.413712	0.398923	0.427102	0.880639	0.333447	1.1637	0.461562	1.213262	0.783784	1.097322	0.307084	0.880475	2.295186
1.266573	1.855712	1.296034	1.747471	0.038569	-0.075795	0.62232	-0.00751299999999999	1.357594	0.644835	1.231094	0.919363	1.305116	0.547465	1.37379	2.476066
0.861895	1.489906	0.979003	1.621054	0.276904	0.346173	0.844547	0.257124	1.15736	0.52468	1.123804	0.685643	1.046606	0.370041	0.903213	2.344826
0.943884	1.618102	0.947285	1.728607	0.484798	0.492219	0.89606	0.335813	1.05409	0.328841	0.933508	0.420834	1.125667	0.536756	1.132582	2.483479
0.583294	1.232188	0.782871	1.518449	0.561067	0.466102	0.895732	0.345659	1.143236	0.479081	1.053238	0.631957	1.148714	0.493649	1.271928	2.446261
0.149384	1.082857	0.66019	1.494473	0.401848	0.289205	0.809133	0.27665	0.89129	0.192363	0.846351	0.328622	1.017669	0.385863	1.127848	2.422478
-0.231924	0.77064	0.345711	1.232914	0.210639	0.10636	0.706265	0.077309	0.861385	0.187428	0.912615	0.413743	0.755045	0.194603	0.422385	2.169965
-0.454334	0.336895	0.033263	1.074876	0.02902	-0.07109	0.568021	-0.098334	0.728984	0.07674	0.89192	0.332765	0.832881	0.24436	0.629677	2.224222
0.076877	0.859691	0.502462	1.225195	0.29832	0.22818	0.654807	0.10417	0.714567	0.114994	0.848032	0.286745	1.09403	0.372556	0.938107	2.274042
-0.610248	0.53688	0.201533	1.149167	0.348758	0.311695	0.70775	0.168751	0.523873	-0.188829	0.600426	-0.062004	0.780506	0.186092	0.17245	2.074521
0.885265	1.354852	0.818903	1.450984	0.408848	0.344129	0.70775	0.195631	0.700247	0.036502	0.746282	0.210628	0.569901	-0.013293	0.00654199999999999	2.023523
0.657378	0.838845	0.657532	1.396989	0.201222	0.287207	0.741964	0.183132	0.700247	0.193461	0.848032	0.346674	0.989715	0.285339	0.71093	2.199303
1.708943	1.671241	1.297899	1.75176	0.119827	0.075954	0.552857	0.015716	0.949101	0.420758	0.951961	0.572628	1.175264	0.489092	0.960649	2.387667
1.582506	1.206896	0.923992	1.552828	0.288603	0.254779	0.707446	0.210111	1.117677	0.648676	1.113695	0.813851	0.860546	0.240061	0.588003	2.168702
2.234736	1.875797	1.401523	1.834831	0.12291	0.172857	0.688807	0.172616	1.170072	0.693689	1.16269	0.889166	1.098171	0.435275	1.044177	2.372656
1.670237	1.548649	1.100494	1.713954	0.670484	0.797924	0.96483	0.65019	0.883452	0.388881	0.84297	0.284478	1.100777	0.478135	1.109181	2.409321
1.817019	1.850337	1.446411	1.81618	0.092797	0.144163	0.636342	0.130076	1.282235	1.007101	1.302782	0.957257	0.890403	0.286633	0.819178	2.299456
0.608025	0.940312	0.57013	1.435566	0.582841	0.654517	0.930018	0.609269	1.127681	0.671374	1.115094	0.715254	1.26225	0.629598	1.506173	2.547274
1.582506	1.749921	1.506407	1.811197	0.549787	0.53177	0.843949	0.519668	0.89129	0.425407	0.9139	0.396142	1.022385	0.457999	1.253628	2.381285
0.734794	1.255864	0.750418	1.487821	0.682401	0.744219	0.878358	0.631695	1.29014	1.018847	1.384387	1.055953	0.679745	0.161828	0.443794	2.204767
2.09025	2.27027	1.717855	1.965576	0.566363	0.621393	0.809785	0.497293	0.876287	0.452285	0.92788	0.342781	1.341585	0.747412	1.625458	2.576767
0.104247	0.833483	0.57013	1.355237	0.38946	0.442105	0.72399	0.390626	1.126413	0.874483	1.277979	0.881755	0.679247	0.132474	0.464166	2.18814
1.582506	1.906186	1.341127	1.75897	0.38946	0.352398	0.655134	0.350993	0.912949	0.520384	0.970976	0.456671	1.233385	0.629598	1.230074	2.421906
0.908611	1.461393	1.039826	1.531209	0.693132	0.708483	0.827828	0.65544	1.103472	0.802691	1.229746	0.874139	0.757138	0.266133	0.608013	2.21046
0.506941	1.461393	0.94985	1.557273	0.434034	0.409334	0.672908	0.368293	0.898053	0.520384	0.968542	0.456671	1.36265	0.815968	1.594033	2.536995
0.63272	1.36489	0.94985	1.507343	0.00453900000000002	-0.040664	0.501195	0.115528	1.132917	0.825629	1.142812	0.813657	1.259081	0.717932	1.391796	2.526589
0.104247	1.207883	0.79905	1.381286	0.417876	0.407198	0.741964	0.452576	0.978923	0.678812	1.011543	0.631265	1.602071	1.051737	1.886505	2.81954
1.057386	1.521808	1.116081	1.685436	0.15956	0.108144	0.620883	0.271643	1.162379	0.965134	1.244899	0.927436	1.341585	0.81144	1.583422	2.681602
-0.145688	0.953788	0.664524	1.381286	0.21433	0.199594	0.603043	0.298987	1.331646	1.18385	1.304169	1.063797	1.448997	0.875705	1.709639	2.719078
1.477086	1.642865	1.221365	1.761399	0.445332	0.43774	0.740868	0.490368	1.296109	1.128462	1.277979	0.988231	1.237554	0.64891	0.987395	2.594804
0.63272	1.267845	0.76666	1.592501	0.582841	0.64964	0.895572	0.625082	1.001552	0.713087	1.016508	0.524595	1.291291	0.732709	1.506173	2.690006
0.35548	1.512408	1.008337	1.644926	0.643381	0.586047	0.861151	0.614526	1.060711	0.762196	0.973426	0.486963	1.479837	0.910511	1.573192	2.751776
0.049444	1.120159	0.656111	1.472695	0.654741	0.590736	0.912508	0.670071	1.282235	1.030627	1.284948	0.93517	0.973731	0.401926	0.6959	2.459613
1.542463	2.111537	1.462445	1.905259	0.588541	0.53177	0.877705	0.607883	1.127681	0.920927	1.243421	0.798492	1.185908	0.569868	1.071723	2.598374
0.303315	1.319965	0.837925	1.525263	0.516611	0.474989	0.894687	0.556179	1.061797	0.766492	1.057167	0.539313	1.531079	0.786885	1.632941	2.7757
1.266573	2.039969	1.371282	1.852606	0.533353	0.507986	0.929064	0.566736	1.381769	1.249476	1.504866	1.195282	1.710871	0.93882	2.038127	2.83316
0.838503	1.570872	1.143033	1.652091	0.744372	0.654517	0.998544	0.663574	1.196628	0.979743	1.251831	0.821441	1.60912	0.870598	1.777022	2.842734
0.81509	1.723359	1.17323	1.707216	0.982684	0.920748	1.067905	0.810754	1.196628	0.930506	1.190652	0.790938	1.447733	0.776909	1.836187	2.83316
0.662516	1.534074	1.081808	1.601852	0.672686	0.65946	1.015702	0.65709	1.455158	1.243744	1.481846	1.246526	1.001445	0.40656	0.760686	2.468586
0.966616	1.644187	1.249704	1.699841	0.772223	0.713483	1.033114	0.686136	1.300182	1.047565	1.289182	0.889771	1.583598	0.983903	1.844964	2.900061
1.650911	1.914678	1.583228	1.850028	0.964915	0.79535	1.085267	0.816925	1.286327	1.090039	1.290602	0.905273	1.448997	0.81144	1.760044	2.80453
1.522458	1.986571	1.477354	1.900002	0.787954	0.739141	1.120118	0.720484	1.338127	1.090039	1.200431	0.874751	1.400191	0.777368	1.350024	2.727865
1.631603	1.924208	1.614164	1.957971	0.694061	0.682767	1.172573	0.731293	1.308209	1.010284	1.171289	0.76808	1.028351	0.440838	0.78354	2.526708
1.202506	1.924208	1.432548	1.913246	1.08114	0.982278	1.294987	1.00318	1.256408	0.930506	1.126883	0.71467	1.160034	0.549868	1.076541	2.598374
2.459289	2.421276	2.008732	2.216441	0.711228	0.631124	1.138079	0.690531	1.411668	1.115236	1.271116	0.973396	0.923172	0.345473	0.574012	2.510709
1.926802	1.943391	1.645289	2.069222	0.894017	0.777577	1.24321	0.815619	1.496272	1.181836	1.261475	0.890284	1.352387	0.808077	1.356707	2.862398
2.234736	2.12098	1.839945	2.189992	0.883785	0.664472	1.261469	0.809518	1.69404	1.421499	1.403609	1.20535	1.059996	0.593945	0.576617	2.674018
1.542463	1.758213	1.44751	2.069222	1.084531	0.965612	1.384638	0.98035	1.815172	1.545028	1.524928	1.35132	1.166267	0.708821	0.977351	2.785296
1.435711	1.645981	1.462445	2.01628	0.779223	0.638599	1.191782	0.637713	1.485983	1.14384	1.229681	0.845156	1.272339	0.708821	1.038975	2.761108
0.734794	1.37824	1.18868	1.892158	1.196675	1.027574	1.385185	0.923339	1.507832	1.230456	1.302117	1.005995	1.004068	0.588964	0.678949	2.679092
1.854427	1.998233	1.780068	2.189992	1.018645	0.937494	1.349858	0.832261	1.62889	1.390665	1.434305	1.121075	1.028351	0.608928	0.760686	2.597532
1.477086	1.438019	1.401415	2.057963	0.886278	0.705749	1.227096	0.700569	1.516237	1.162478	1.246469	0.94551	1.477193	1.020966	1.590649	2.876363
2.1425	1.982231	1.868334	2.207621	0.914388	0.799022	1.315017	0.803433	1.365153	1.027413	1.197585	0.875931	1.184888	0.708279	1.090472	2.684734
1.057386	1.5237	1.386361	1.984348	0.812421	0.66955	1.208809	0.656025	1.400738	1.132643	1.237936	0.890942	1.081263	0.603973	0.591734	2.579056
1.56248	1.988639	1.583228	2.116449	1.145396	1.030528	1.314114	0.883718	1.47449	1.243132	1.313088	1.036769	1.531079	0.966529	1.590649	2.866682
1.139136	1.81986	1.416843	2.09285	1.215714	1.111557	1.348422	0.912341	1.362481	1.114045	1.237936	0.89882	1.400191	0.8575	1.301385	2.761249
1.854427	1.998233	1.868334	2.187067	1.187783	1.083604	1.400667	0.935019	1.338127	1.059478	1.175368	0.821757	1.321691	0.797757	1.283188	2.814009
0.931933	1.414741	1.310764	1.984348	1.09431	0.968486	1.348651	0.929172	1.471523	1.267943	1.293454	1.012798	1.452857	0.955937	1.488495	2.838029
1.477086	1.804402	1.687032	2.181258	1.182992	1.058585	1.383595	0.951914	1.411668	1.157737	1.276749	0.951502	1.505475	0.926129	1.717639	2.910157
0.381487	1.218901	1.069231	1.855197	1.136825	0.959915	1.330424	0.895246	1.583109	1.249476	1.27959	0.990064	1.47851	1.010269	1.717639	2.958302
1.034719	1.675558	1.356068	2.010739	1.043418	0.811049	1.225382	0.770272	1.544856	1.274266	1.393166	1.080815	1.532455	0.955937	1.658038	2.934223
1.435711	1.799724	1.41644	2.0316	0.937129	0.803123	1.242223	0.765598	1.373684	1.152292	1.30302	0.905273	1.400191	0.906786	1.410514	2.866928
2.107633	2.307716	1.882492	2.178374	0.60536	0.446535	1.067885	0.471348	1.691018	1.506241	1.507812	1.315769	1.236496	0.777368	1.21691	2.751776
0.734794	1.482123	0.902065	1.723671	0.765474	0.621393	1.085262	0.574893	1.365626	1.098093	1.109009	0.737578	0.997282	0.574679	0.799726	2.556283
0.481587	1.691025	1.161006	1.76384	0.660139	0.4683	1.015982	0.452576	1.576745	1.305941	1.320737	1.116709	1.155134	0.742663	1.006364	2.699935
-0.735702	0.8463	0.468975	1.457369	0.90217	0.823392	1.137211	0.711984	1.436369	1.215291	1.231094	0.897068	1.259081	0.791903	1.295627	2.800107
1.161156	2.147187	1.386464	1.884543	0.869387	0.769819	1.154517	0.762062	1.258675	1.01602	1.082245	0.639338	1.630289	1.162033	1.793968	2.985472
0.076877	1.21919	0.680921	1.507343	0.907308	0.767266	1.240891	0.885736	1.331646	1.124808	1.184314	0.745509	1.497564	1.097228	1.608071	2.985472
1.394347	2.440694	1.580975	2.015287	0.610391	0.501132	1.085292	0.631695	1.258675	0.941886	1.011543	0.479707	1.97154	1.455657	2.676227	3.299255
0.686638	1.789711	1.12997	1.745006	0.862561	0.670588	1.22359	0.846323	1.288245	1.062716	1.086056	0.563241	1.736225	1.210574	2.064089	3.085713
0.71073	1.78392	1.161006	1.740117	0.538892	0.372527	1.119911	0.626431	1.700607	1.578918	1.484994	1.305557	1.180913	0.644052	1.319544	2.775974
0.430752	1.428181	0.721609	1.618706	0.764268	0.67299	1.18926	0.788971	1.303998	1.116597	1.134177	0.593533	1.763101	1.205117	2.33418	3.167454
1.650911	2.394269	1.822945	2.075951	0.90217	0.734131	1.258696	0.924187	1.363339	1.256517	1.181125	0.654176	1.739308	1.132298	2.276111	3.134657
0.303315	1.157644	0.795595	1.618706	0.693132	0.614269	1.224052	0.760173	1.81958	1.688309	1.576359	1.350145	0.999749	0.545073	0.845384	2.698794
1.798349	2.375641	1.657961	2.049661	0.74307	0.67541	1.258921	0.788171	1.571605	1.427029	1.377893	1.018657	1.766244	1.156604	2.13276	3.163747
0.583294	1.328869	1.037851	1.745006	1.128519	0.93783	1.362855	1.087995	1.712515	1.713201	1.630093	1.32996	1.502793	0.964688	1.717639	2.986598
0.989333	1.936976	1.537711	1.973541	0.826143	0.67541	1.276321	0.850443	1.387384	1.268537	1.261475	0.714894	1.05081	0.510746	1.02954	2.646209
0.202986	1.438019	1.037851	1.742555	0.798435	0.494424	1.172134	0.743035	1.463327	1.335368	1.297766	0.913065	1.501469	0.935009	1.878444	3.000711
0.758828	2.017536	1.461745	1.91842	0.798435	0.583728	1.189527	0.703319	1.284207	1.109953	1.143473	0.554963	1.613486	1.064549	1.743034	3.034648
0.63272	1.377225	0.947285	1.718787	0.853865	0.79535	1.276588	0.838851	1.60143	1.506241	1.439015	0.996041	1.029244	0.53464	0.571704	2.63156
1.330619	2.052753	1.687032	2.017972	0.886747	0.67541	1.276588	0.901193	1.41719	1.347794	1.321153	0.889771	1.427171	0.896341	1.488495	2.9435
0.782832	1.438019	1.159628	1.894796	0.881604	0.767266	1.29417	0.889672	1.904829	1.932564	1.732334	1.571658	1.643557	0.991085	1.640771	2.996517
0.758828	1.778964	1.356068	2.002528	0.638536	0.472743	1.172573	0.741355	1.772295	1.786879	1.58737	1.30759	1.617958	1.105249	1.913473	3.111884
-0.32888	1.035363	0.779405	1.699841	0.810514	0.744219	1.329823	0.900554	1.618021	1.56145	1.442034	1.042285	1.622537	0.98258	1.563355	2.992385
1.057386	1.717862	1.52192	2.075951	0.449946	0.356627	1.155428	0.637713	1.240475	1.054289	1.043193	0.432239	1.30185	0.783315	1.038975	2.833379
0.506941	1.439653	1.144122	1.878926	0.66629	0.564774	1.3125	0.877778	1.359962	1.176261	1.166927	0.592146	1.884576	1.225032	2.143366	3.092856
1.080037	1.743145	1.446411	2.046919	0.621666	0.466102	1.224648	0.747614	1.41719	1.311595	1.310189	0.813765	1.431076	0.832805	1.204089	2.761107
0.931933	1.562712	1.098818	1.897393	0.824614	0.63079	1.328075	0.857182	1.371327	1.143206	1.174004	0.654176	1.455487	0.792627	1.222475	2.732272
0.782832	1.845725	1.265502	1.91842	0.648806	0.483561	1.171965	0.700199	1.776837	1.650481	1.601085	1.344128	1.874135	1.08897	2.249408	2.900369
0.35548	1.489906	0.750418	1.718787	0.703262	0.656512	1.292605	0.836386	1.657718	1.505789	1.497134	1.163061	1.585024	0.862723	1.530825	2.718053
1.689582	2.607883	1.581943	2.075951	0.963749	0.977402	1.377797	0.999153	1.398725	1.179932	1.097711	0.699544	1.287968	0.623897	1.067218	2.560809
0.329422	1.478699	0.79905	1.671161	0.702904	0.73793	1.257225	0.78878	1.469118	1.151568	1.060806	0.707386	1.521757	0.727998	1.49946	2.632334
1.689582	2.084744	1.491166	1.970873	0.993128	1.024706	1.427318	1.056389	1.443279	1.221369	1.207965	0.91175	1.387058	0.747672	1.517141	2.656199
2.218024	2.075798	1.341623	1.892213	0.714544	0.69197	1.240162	0.799254	1.253006	0.992255	0.955448	0.519716	0.963949	0.254434	0.566482	2.264839
1.522458	1.914678	1.162669	1.790004	0.927673	0.95189	1.257202	0.887981	1.157809	0.955078	0.901329	0.401563	1.14527	0.383588	0.998725	2.318865
0.329422	1.354852	0.673933	1.500826	0.726277	0.825432	1.122629	0.758824	1.221476	1.023813	0.953273	0.575175	1.141988	0.39483	1.036629	2.293393
0.989333	1.979086	1.135808	1.598144	0.669281	0.672788	1.022907	0.707461	1.248921	1.145843	1.159069	0.800652	1.265638	0.500095	1.493646	2.364565
0.35548	1.08523	0.443082	1.311511	0.375312	0.351869	0.9066	0.508897	1.021734	0.832728	0.854455	0.369387	1.159776	0.457731	1.430006	2.320635
0.158793	1.184096	0.553521	1.327739	0.134485	0.147587	0.756897	0.32056	1.219945	1.091533	0.979095	0.616296	0.953641	0.148707	0.927195	2.115917
0.185971	1.07711	0.689806	1.349603	0.384483	0.286611	0.841816	0.459441	1.219945	1.084441	0.953845	0.607762	0.980762	0.099175	0.867266	2.077367
0.681999	1.569127	0.907165	1.454176	0.288778	0.203316	0.858399	0.451975	1.241059	1.066523	0.953845	0.630296	1.238696	0.235197	1.190026	2.150887
-0.240944	0.884268	0.362794	1.206705	0.302899	0.324092	0.890589	0.453865	1.205894	1.109998	1.017567	0.755795	0.954712	0.066349	0.867266	2.092979
-0.088584	1.10048	0.449777	1.283859	0.590537	0.619706	1.073481	0.760555	1.121026	0.962124	0.905298	0.546972	0.981927	-0.037032	0.746762	1.980477
0.407443	1.268223	0.755454	1.41474	0.521021	0.447641	1.005727	0.688811	1.28468	1.169264	1.072723	0.762252	1.270941	0.310066	1.380919	2.312724
0.256359	1.28006	0.662611	1.444706	0.769036	0.734126	1.106593	0.76553	1.092534	1.038739	0.988844	0.575175	1.140405	0.247803	1.357843	2.265679
1.057386	1.789389	1.151328	1.569995	0.603904	0.623807	1.106117	0.737122	0.971037	0.885786	0.931256	0.410527	1.141988	0.339103	1.014341	2.25467
1.080037	1.728518	1.003248	1.541929	0.475324	0.451393	1.038622	0.616873	1.021099	0.904006	1.004983	0.545387	1.430079	0.61642	1.605011	2.454134
0.931933	1.814695	0.987457	1.619619	0.545364	0.417997	0.955016	0.537443	0.927945	0.772656	0.863031	0.28913	1.430079	0.562807	1.481269	2.383377
0.806804	1.75367	0.94327	1.468521	0.826744	0.793467	1.073102	0.755591	1.178257	1.097112	1.185103	0.896576	1.35192	0.562807	1.581301	2.398366
1.873163	2.20038	1.402811	1.718738	0.3106	0.215784	0.837936	0.379008	1.178257	1.155556	1.141266	0.821558	1.640524	0.737822	1.787537	2.496971
1.205165	1.911362	1.195514	1.59592	0.571828	0.564394	0.97251	0.640629	1.192349	1.191605	1.182547	0.896576	1.487637	0.586024	1.62893	2.447962
2.26828	2.322661	1.550402	1.798962	0.357698	0.367709	0.988753	0.583267	1.163809	1.232071	1.282472	0.941482	1.254012	0.478135	1.368163	2.398707
0.806804	1.5237	0.794809	1.375117	0.463873	0.431131	1.055412	0.706858	1.063992	1.101321	1.13751	0.694515	0.99188	0.148962	0.938107	2.214841
1.330619	1.988639	1.120259	1.555044	0.49615	0.459073	1.055231	0.733707	0.913938	0.863802	0.992333	0.341894	1.230368	0.408426	1.188257	2.458179
0.481587	1.515251	0.835009	1.383367	0.842599	0.777188	1.240597	1.019163	0.849159	0.761027	0.85023	0.137249	1.75395	0.845376	2.48018	2.847731
1.435711	2.120386	1.149112	1.533421	0.735765	0.784098	1.291063	0.979752	1.228817	1.293698	1.263018	0.776374	1.337069	0.383588	1.608071	2.616239
0.838503	1.958842	0.876074	1.389681	0.420021	0.343368	1.122111	0.748908	1.114358	1.103125	1.091063	0.489668	1.679601	0.776909	2.164785	2.823889
0.71073	1.823088	0.892078	1.385459	0.591335	0.42921	1.155848	0.787595	1.366407	1.375967	1.315159	0.91175	1.627467	0.747412	2.021795	2.799726
-0.16169	1.374816	0.256233	1.083887	0.719458	0.638637	1.240256	0.996428	1.208137	1.228025	1.225726	0.708371	1.626073	0.639214	2.122529	2.727309
1.742497	2.880341	1.356267	1.642563	0.429452	0.315307	1.155657	0.770806	1.021053	0.934304	0.924297	0.184887	1.441577	0.501329	1.76881	2.630923
-0.033238	1.528718	0.452181	1.13426	0.574571	0.518853	1.206437	0.908695	1.592593	1.64341	1.456061	1.017824	0.941615	0.082276	0.838585	2.288659
2.0211	2.487996	1.221365	1.587901	0.385374	0.29081	1.138464	0.764228	1.520926	1.57785	1.488003	1.078465	1.258046	0.338333	1.355745	2.462706
0.614192	2.014537	0.782871	1.363517	0.762281	0.698639	1.240189	1.023697	1.484022	1.631473	1.498703	1.055061	0.994906	0.174867	0.651544	2.303836
0.744723	2.215942	1.084877	1.494473	0.659835	0.675327	1.257094	1.006314	1.275773	1.272623	1.110322	0.50998	1.472039	0.604304	1.565925	2.645581
0.484011	1.666637	0.586708	1.238827	0.681334	0.591571	1.206032	0.983544	1.565844	1.679418	1.553631	1.063797	1.788406	0.94543	2.122529	2.895901
1.181152	2.303448	1.235647	1.621054	0.860132	0.679871	1.496264	0.934003	1.845355	1.525532	1.086475	0.783784	1.71186	1.421852	2.244376	3.120291
1.402724	3.000792	1.144122	2.154112	0.52779	0.747447	1.309787	1.08382	1.54703	1.124954	0.611489	0.243123	1.883392	1.672716	2.244376	3.249445
0.434164	2.976939	0.856888	2.265992	0.159293	0.818249	1.294019	1.266115	1.42835	1.185677	0.720164	0.429627	2.090235	1.75681	2.678212	3.418023
0.041505	2.443145	0.294523	2.094076	-0.038113	0.665831	1.137543	1.078961	1.148257	1.030626	0.667431	0.323655	1.918622	1.644709	2.106418	3.404389
-0.012769	2.280405	0.135131	2.161393	-0.368164	0.402972	1.067918	0.908695	1.191859	1.159773	0.86083	0.565413	2.149706	1.731509	2.661525	3.482889
1.138449	2.836393	0.639656	2.445212	-0.018603	0.792792	1.207628	1.096142	1.471549	1.552404	1.209283	1.11555	1.997883	1.503781	2.276111	3.343801
0.984785	2.768963	0.49876	2.430401	0.18469	1.060267	1.32963	1.2279	1.590084	1.633196	1.291774	1.153714	1.879612	1.542305	1.691808	3.420776
2.266755	3.297401	1.081808	2.623269	0.167165	1.038131	1.27748	1.211416	1.649461	1.790307	1.491029	1.388699	1.878038	1.34864	1.751695	3.320931
1.270405	3.037581	0.711098	2.542447	0.0136860000000001	0.887322	1.259692	1.118607	1.517332	1.690933	1.494072	1.358273	1.961247	1.394171	1.863611	3.347724
1.291039	2.795466	0.511028	2.400767	-0.180794	0.65207	1.120204	0.943132	1.236914	1.281348	1.240652	0.957257	1.48884	0.946971	1.105803	3.071329
0.54151	2.62544	0.305493	2.318474	-0.061173	0.769819	1.172336	1.058405	1.258675	1.42715	1.314001	1.01007	1.457631	0.927182	1.246681	3.026636
2.102364	3.253194	0.987454	2.605884	-0.130227	0.710975	1.137447	0.981582	1.022761	1.081942	0.986148	0.526906	1.274679	0.738363	1.10037	2.886549
0.852828	2.477911	0.259456	2.293448	0.0643980000000001	0.943248	1.172017	1.091497	1.257049	1.368777	1.159279	0.828825	1.115683	0.584376	0.887788	2.775567
1.986776	3.0773	0.865142	2.603139	-0.089547	0.79535	1.137299	0.976379	1.131859	1.223151	1.138925	0.813851	0.961275	0.40427	0.553949	2.67435
1.837365	3.010473	0.89516	2.558499	-0.224875	0.490031	1.016041	0.862387	1.284883	1.462721	1.209283	1.031894	1.220108	0.724283	1.228369	2.982393
1.402724	2.976939	0.67835	2.443797	-0.441786	0.342101	0.877551	0.670132	1.204602	1.339616	1.074735	0.806403	0.986302	0.511142	0.915495	2.881622
0.962719	2.686235	0.242229	2.328575	-0.294054	0.611927	0.998676	0.844333	1.110096	1.220818	0.932332	0.640095	1.507039	0.893281	1.760722	3.204958
1.686912	3.004042	0.69474	2.494018	-0.281339	0.518265	0.981638	0.790603	1.05895	1.202822	0.91724	0.609972	1.508206	0.927182	1.743779	3.201614
1.969684	2.963967	0.740777	2.591834	-0.133866	0.637737	1.033504	0.899503	1.321986	1.497078	1.194177	1.062017	1.299152	0.675697	1.467721	3.090482
1.855178	3.092243	0.711098	2.563949	-0.300417	0.524946	0.929634	0.827623	1.249314	1.326484	1.035637	0.74587	1.430079	0.844933	1.683529	3.304329
0.852828	2.637115	0.322598	2.300928	-0.363447	0.43558	0.912508	0.745439	1.308149	1.432182	1.067116	0.858986	1.092444	0.607169	1.19793	3.154811
0.984785	2.691372	0.322598	2.373695	-0.133866	0.665831	0.964713	0.911009	1.388647	1.584982	1.229746	1.07751	1.427907	0.84012	1.992863	3.361304
1.593052	3.046601	0.697984	2.533448	-0.363447	0.46392	0.87819	0.740405	1.300369	1.479291	1.217279	1.085296	1.35192	0.849766	1.700618	3.336959
0.984785	2.78061	0.402519	2.396215	-0.215397	0.496643	0.87819	0.789068	1.219924	1.443655	1.250357	1.100949	1.793907	1.154935	2.558026	3.583016
2.102364	3.221129	0.819192	2.614195	-0.038844	0.67541	0.929887	0.942079	1.241605	1.502348	1.268326	1.169572	1.92328	1.34864	2.846554	3.688039
1.952639	3.153586	0.586232	2.619798	-0.107937	0.64964	0.929634	0.924372	1.241605	1.561111	1.356831	1.335984	1.587553	1.112051	2.122463	3.509942
2.783974	3.632841	1.065061	2.834928	0.160589	0.948734	1.016104	1.139162	1.037113	1.354189	1.21157	1.049103	1.639212	1.22908	2.369971	3.682401
2.219835	3.096805	0.586232	2.619798	0.377607	1.152298	1.085329	1.260582	1.380785	1.708333	1.430061	1.488401	1.742388	1.253056	2.572873	3.695471
1.382831	3.102454	0.540238	2.54429	0.0180530000000001	0.734131	0.895114	0.951622	1.022138	1.313362	1.088617	0.980448	1.4565	1.03461	1.906656	3.469259
-0.012769	2.296393	-0.125197	2.248307	-0.164833	0.614269	0.808715	0.830131	1.043954	1.207325	1.044357	0.988231	1.66436	1.287701	2.28361	3.689857
1.402724	3.058696	0.511028	2.608642	0.00164700000000007	0.78522	0.809133	0.858498	0.897801	1.079021	0.864902	0.699904	1.403674	1.063859	1.966162	3.525651
1.837365	3.004042	0.465209	2.605884	0.086867	0.93783	0.912508	0.94635	1.014688	1.19605	1.044357	0.912485	1.377282	0.95197	1.734701	3.471845
2.383732	3.258773	0.835312	2.772865	-0.026726	0.787728	0.895415	0.969221	0.948854	1.144379	1.012778	0.927436	1.378327	0.956987	1.880261	3.453053
2.53103	3.23135	0.773286	2.772865	-0.067267	0.820811	0.964381	0.974479	0.97805	1.173591	1.012778	0.866718	1.715925	1.28234	2.5877	3.758756
2.516778	3.352407	0.865142	2.823034	-0.158633	0.792792	0.912237	0.897185	1.167712	1.402899	1.251731	1.252793	1.504735	1.048564	2.100624	3.498592
1.402724	2.768963	0.402519	2.533448	-0.044907	0.945983	0.981295	1.045685	1.190551	1.502348	1.374969	1.299438	1.480647	0.971154	2.143366	3.474502
2.398711	3.242985	0.835312	2.742085	-0.284764	0.67541	0.894687	0.836561	1.182913	1.414336	1.314001	1.222386	1.714558	1.184095	2.330226	3.64006
1.138449	2.716387	0.202208	2.430795	0.143763	1.060267	1.085279	1.156098	0.839277	0.936867	0.888286	0.563241	1.817454	1.367079	2.717503	3.799298
