fnirSoft:	Exported Text File
Version:	4.2
ExportDate:	12/18/2023 11:14:37 AM
VariableInfo
Name:	oxygraph9.hbt.Block1
Size:	2118 x 16
Type:	Numeric
Content:	Hemoglobin
Date:	12/18/2023 11:14:26 AM
Notes:	Total-hemoglobin concentration changes data saved by Oxygraph from file C:\Users\Anette Johansson\Documents\COBI Studio Data\friska kontroller\2011K\MALIN_2011K_1_04260836.oxy
Labels:	HBT	DATA
VariableData
Hemoglobin	Hemoglobin	Hemoglobin	Hemoglobin	Hemoglobin	Hemoglobin	Hemoglobin	Hemoglobin	Hemoglobin	Hemoglobin	Hemoglobin	Hemoglobin	Hemoglobin	Hemoglobin	Hemoglobin	Hemoglobin
Optode1	Optode2	Optode3	Optode4	Optode5	Optode6	Optode7	Optode8	Optode9	Optode10	Optode11	Optode12	Optode13	Optode14	Optode15	Optode16
-0.381036	-0.38605	-0.452965	-0.573936	-1.359776	-0.680659	-1.032492	-0.893297	-1.093894	-0.536309	-0.817064	-0.71785	-0.932996	-0.999625	-0.678708	-0.526348
-0.623858	-0.601663	-0.669762	-0.678121	-1.372035	-0.678745	-1.031699	-0.891156	-1.077734	-0.5462	-0.788562	-0.736766	-0.808326	-0.87861	-0.493149	-0.386443
-0.804596	-0.27522	-0.624511	-0.659808	-1.297575	-0.62359	-1.037179	-0.864007	-1.040647	-0.559766	-0.761926	-0.711973	-0.74601	-0.796903	-0.396204	-0.270829
-0.442992	0.306278	-0.473997	-0.552211	-1.347506	-0.631256	-1.025387	-0.895428	-0.984363	-0.544937	-0.736343	-0.696957	-0.735118	-0.820052	-0.397877	-0.177486
-0.320863	0.572918	-0.389754	-0.503729	-1.310429	-0.603695	-1.016699	-0.882986	-0.975519	-0.590317	-0.730331	-0.681484	-0.671225	-0.750867	-0.210419	-0.080133
-0.440906	0.597359	-0.435224	-0.547181	-1.309821	-0.595963	-1.01428	-0.843323	-0.976821	-0.552384	-0.697779	-0.661266	-0.651378	-0.690056	-0.219612	-0.0512670000000001
-0.620893	0.576343	-0.521601	-0.545471	-1.285473	-0.576101	-0.971659	-0.833517	-0.963459	-0.538802	-0.691838	-0.572754	-0.513493	-0.581782	-0.029897	0.066507
-0.801679	0.396646	-0.605766	-0.687209	-1.186233	-0.508911	-0.89407	-0.763257	-1.005232	-0.588052	-0.686869	-0.521541	-0.629946	-0.708778	-0.346944	-0.055273
-0.563989	0.409365	-0.497391	-0.667313	-1.161293	-0.532704	-0.893262	-0.742528	-1.039424	-0.61146	-0.666058	-0.490346	-0.609982	-0.657492	-0.358271	-0.0671310000000001
-0.502051	0.475913	-0.541652	-0.665621	-1.111848	-0.496998	-0.848876	-0.678615	-1.015651	-0.584289	-0.667068	-0.482597	-0.472037	-0.557866	-0.19085	-0.038268
-0.684522	0.475913	-0.582581	-0.667313	-1.124183	-0.467359	-0.802014	-0.647443	-1.055713	-0.625034	-0.68094	-0.496624	-0.60087	-0.687507	-0.397262	-0.161692
-0.685156	0.380277	-0.623296	-0.681475	-1.222875	-0.538593	-0.798721	-0.675781	-1.039424	-0.594106	-0.670965	-0.448187	-0.551784	-0.643757	-0.377775	-0.199365
-0.921029	0.263546	-0.777494	-0.755262	-1.173589	-0.503029	-0.769364	-0.632633	-0.957617	-0.504119	-0.6235	-0.396771	-0.60087	-0.660077	-0.445373	-0.358866
-0.744092	0.176388	-0.732572	-0.653114	-1.198838	-0.506971	-0.739145	-0.58939	-0.856286	-0.365318	-0.584816	-0.332654	-0.588608	-0.632614	-0.455625	-0.570609
-0.983193	-0.128783	-0.796337	-0.712203	-1.198964	-0.485072	-0.702554	-0.543867	-0.886068	-0.376656	-0.607618	-0.366971	-0.508919	-0.521718	-0.366382	-0.687203
-0.804596	-0.284457	-0.752322	-0.678121	-1.223725	-0.536572	-0.702554	-0.525201	-0.880167	-0.369114	-0.650261	-0.421763	-0.535003	-0.549246	-0.3947	-0.812109
-0.804596	-0.471943	-0.776506	-0.697988	-1.198838	-0.534648	-0.678622	-0.483441	-0.856286	-0.308264	-0.624495	-0.410824	-0.586965	-0.622914	-0.529968	-0.955941
-1.164329	-0.763	-0.877204	-0.765436	-1.136663	-0.467359	-0.63868	-0.414642	-0.778583	-0.253404	-0.596718	-0.379578	-0.675188	-0.696142	-0.59345	-1.062165
-1.280377	-0.779643	-0.924582	-0.803442	-1.124183	-0.441577	-0.623518	-0.38543	-0.717187	-0.182425	-0.571912	-0.332654	-0.751882	-0.765864	-0.811309	-1.176511
-1.341266	-0.747262	-0.965072	-0.819333	-0.999589	-0.338249	-0.507505	-0.299877	-0.890615	-0.369114	-0.749188	-0.460771	-0.626465	-0.838703	-0.760027	-1.132675
-1.2817	-0.912366	-1.072028	-1.009532	-0.585246	-0.348251	-0.295994	-0.31643	-1.042367	-0.793449	-0.932449	-0.466952	-0.307029	-0.935327	-0.585264	-1.030349
-1.223743	-1.259354	-1.19483	-1.390021	-0.204784	-0.447341	-0.102023	-0.458691	-1.304086	-1.323771	-1.063875	-0.678212	-0.070063	-1.038804	-0.634475	-1.060358
-1.752354	-1.866811	-1.575992	-1.801995	0.051528	-0.44544	0.10207	-0.50045	-1.544966	-1.765121	-1.141136	-0.87917	0.066778	-1.181537	-0.715571	-1.104227
-1.98708	-2.292526	-1.757171	-2.038035	0.258113	-0.429652	0.30002	-0.583355	-1.688133	-1.932901	-1.126486	-0.92546	0.259226	-1.263618	-0.736438	-1.207746
-2.159734	-2.79898	-1.98731	-2.295826	0.400602	-0.378004	0.482567	-0.575123	-1.734775	-2.142244	-1.032513	-1.051428	0.156036	-1.324582	-0.906652	-1.306432
-1.811992	-2.584182	-1.777427	-2.197793	0.039225	-0.530739	0.18129	-0.800326	-1.705731	-2.228287	-0.89302	-1.170897	-0.11066	-1.388165	-0.986813	-1.237612
-1.693395	-2.057238	-1.656688	-2.0662	-0.408806	-0.540359	-0.269579	-0.93661	-1.692627	-2.234186	-0.890979	-1.327946	-0.771851	-1.707199	-1.579182	-1.418115
-1.695219	-1.771089	-1.591092	-1.945093	-0.937037	-0.722064	-0.722364	-1.146737	-1.588935	-2.11281	-0.829049	-1.257899	-1.008443	-1.655097	-1.533057	-1.453387
-2.213337	-1.753232	-1.866679	-1.954648	-1.569323	-1.06058	-1.191582	-1.498669	-1.501043	-1.958203	-0.872981	-1.252549	-0.89634	-1.29996	-0.947576	-1.200917
-2.03971	-1.339248	-1.679973	-1.713856	-1.752368	-1.010136	-1.421748	-1.494036	-1.357166	-1.707682	-0.814975	-1.088896	-0.949656	-1.193343	-0.915269	-1.076212
-1.800613	-0.856136	-1.557193	-1.51172	-1.861524	-0.859315	-1.541754	-1.400312	-1.224267	-1.447423	-0.724037	-0.871928	-1.123328	-1.200314	-1.141788	-1.062165
-1.039933	-0.222935	-1.220851	-1.177917	-1.898872	-0.763393	-1.642055	-1.356498	-1.158035	-1.363326	-0.744955	-0.806409	-1.058018	-0.998249	-0.933922	-0.913315
-0.801679	-0.124466	-1.092739	-1.052281	-2.020396	-0.81642	-1.7644	-1.435737	-1.180127	-1.404584	-0.822139	-0.882342	-1.191311	-1.030009	-0.968919	-0.97906
-0.624984	-0.135265	-1.086685	-0.96499	-2.032189	-0.731803	-1.82311	-1.437371	-1.196297	-1.392531	-0.854727	-0.883932	-1.326852	-1.103898	-1.144703	-1.086699
-0.681878	-0.214857	-1.154761	-0.956546	-2.056881	-0.716187	-1.871571	-1.488543	-1.238928	-1.403229	-0.897009	-0.914651	-1.332095	-1.053808	-1.195533	-1.139207
-0.745503	-0.332073	-1.148431	-0.941862	-2.105043	-0.694469	-1.914021	-1.536722	-1.231336	-1.387376	-0.888021	-0.874286	-1.342663	-1.026732	-1.224913	-1.177853
-0.922846	-0.419023	-1.258943	-0.970674	-2.117381	-0.741766	-1.923913	-1.516835	-1.252167	-1.373207	-0.92162	-0.936259	-1.441691	-1.133665	-1.398309	-1.263703
-0.563035	-0.054437	-1.068627	-0.805169	-2.141384	-0.735848	-1.907817	-1.474219	-1.278622	-1.357402	-0.917634	-0.942295	-1.422053	-1.154571	-1.358889	-1.248183
-0.684522	-0.103815	-1.089282	-0.79442	-2.141384	-0.668876	-1.839292	-1.366682	-1.213252	-1.230099	-0.852385	-0.869279	-1.344584	-1.10154	-1.324002	-1.177026
-0.745503	-0.114435	-1.022051	-0.774571	-2.141564	-0.688642	-1.826117	-1.318307	-1.220906	-1.202709	-0.838909	-0.903833	-1.318756	-1.080853	-1.243795	-1.109255
-0.681878	-0.038283	-0.944305	-0.671215	-2.093173	-0.661065	-1.788311	-1.210319	-1.157466	-1.110466	-0.794503	-0.90683	-1.392473	-1.209718	-1.418565	-1.129711
-0.624652	0.107026	-0.834368	-0.592207	-1.995968	-0.51085	-1.6816	-1.060852	-1.019725	-0.960879	-0.699737	-0.785152	-1.296225	-1.094364	-1.138796	-0.948449
-0.561621	0.217869	-0.84019	-0.549254	-1.935668	-0.506971	-1.645906	-0.993725	-0.863256	-0.788339	-0.585676	-0.684196	-1.236317	-1.040275	-1.043924	-0.856107
-0.381036	0.401255	-0.603555	-0.423152	-1.959572	-0.566302	-1.659123	-1.052748	-0.802007	-0.788339	-0.557925	-0.681213	-1.180549	-0.93918	-0.889682	-0.745891
-0.442182	0.272286	-0.581404	-0.410542	-1.789615	-0.481218	-1.615652	-0.954703	-0.799139	-0.821479	-0.601657	-0.82979	-1.17479	-0.945313	-0.86186	-0.742016
-0.076817	0.401255	-0.38732	-0.293	-1.691465	-0.419699	-1.567509	-0.917231	-0.662845	-0.734471	-0.515255	-0.689109	-1.306794	-1.080853	-0.965924	-0.85992
-0.260741	0.107026	-0.516003	-0.388816	-1.679319	-0.433608	-1.597817	-0.985058	-0.617613	-0.694989	-0.467359	-0.66233	-1.281426	-1.037813	-1.024903	-0.866807
-0.199076	0.086159	-0.430689	-0.3762	-1.679436	-0.491151	-1.614125	-1.044639	-0.63394	-0.748856	-0.502116	-0.71785	-1.282849	-1.051355	-1.06293	-0.946547
-0.075969	0.081409	-0.410844	-0.361813	-1.642809	-0.49312	-1.614892	-1.048957	-0.679185	-0.774883	-0.50524	-0.733799	-1.301059	-1.059943	-1.161011	-1.024199
-0.199595	-0.078131	-0.493727	-0.450083	-1.630298	-0.461402	-1.606362	-1.044639	-0.684888	-0.762304	-0.509062	-0.71785	-1.31093	-1.07217	-1.166081	-1.083011
-0.260384	-0.189677	-0.516003	-0.484372	-1.654991	-0.491151	-1.643615	-1.073302	-0.775183	-0.831311	-0.569874	-0.805073	-1.353223	-1.130017	-1.243795	-1.169131
0.04592	-0.020854	-0.407044	-0.426626	-1.642593	-0.461402	-1.605585	-1.001282	-0.764633	-0.77127	-0.557925	-0.758572	-1.436704	-1.210866	-1.386067	-1.251886
-0.132725	-0.050677	-0.498492	-0.453876	-1.715871	-0.524725	-1.627316	-1.035879	-0.743505	-0.755159	-0.562681	-0.742647	-1.403668	-1.161796	-1.348473	-1.241325
-0.439167	-0.329127	-0.689626	-0.561828	-1.740524	-0.514896	-1.606362	-1.024066	-0.730082	-0.71835	-0.541877	-0.71492	-1.384843	-1.138624	-1.379459	-1.214572
-0.377697	-0.222935	-0.66869	-0.500696	-1.752656	-0.52675	-1.611783	-1.038084	-0.683973	-0.670619	-0.511226	-0.678212	-1.251115	-1.00454	-1.119854	-1.089899
-0.074648	-0.025711	-0.561587	-0.406989	-1.703597	-0.419699	-1.544166	-0.970347	-0.595412	-0.579523	-0.437573	-0.586714	-1.260299	-1.00454	-1.149233	-1.070531
-0.198084	-0.075124	-0.582581	-0.432229	-1.716123	-0.463408	-1.559731	-1.021882	-0.654086	-0.663283	-0.468489	-0.683032	-1.24458	-0.987106	-1.050219	-1.024849
0.046619	0.036564	-0.473997	-0.361813	-1.740627	-0.544582	-1.613351	-1.101942	-0.649374	-0.697632	-0.464463	-0.706022	-1.264463	-1.022908	-1.098746	-1.063636
-0.259555	-0.083129	-0.603555	-0.46827	-1.716123	-0.491151	-1.582274	-1.107867	-0.625317	-0.647234	-0.417636	-0.681213	-1.11677	-0.924162	-0.836207	-0.977225
-0.559748	-0.272063	-0.712705	-0.549254	-1.716299	-0.560364	-1.621885	-1.171539	-0.635896	-0.684129	-0.410662	-0.692121	-1.240519	-1.022908	-1.060874	-1.063636
-0.744092	-0.373338	-0.752322	-0.601273	-1.667266	-0.546538	-1.614892	-1.151057	-0.598336	-0.606631	-0.389725	-0.689109	-1.204556	-1.009382	-1.041916	-1.072396
-0.864942	-0.401712	-0.794024	-0.62635	-1.642809	-0.508911	-1.585372	-1.114355	-0.496019	-0.472066	-0.269758	-0.508958	-1.219956	-1.032836	-1.150852	-1.103582
-0.563989	-0.27522	-0.645447	-0.554563	-1.642948	-0.538475	-1.601647	-1.110511	-0.587749	-0.549875	-0.311764	-0.617614	-1.145911	-0.96632	-1.090401	-1.081151
-0.685156	-0.360448	-0.685991	-0.558019	-1.642889	-0.534648	-1.592373	-1.085729	-0.520157	-0.491857	-0.283768	-0.564848	-1.204556	-1.034031	-1.243795	-1.142925
-0.624652	-0.282979	-0.622021	-0.496947	-1.679436	-0.520814	-1.562068	-1.063027	-0.55014	-0.522735	-0.304769	-0.63154	-1.227147	-1.058661	-1.291968	-1.160402
-0.921029	-0.434967	-0.75347	-0.574398	-1.752772	-0.63933	-1.606362	-1.118132	-0.48834	-0.452243	-0.251702	-0.542942	-1.186056	-1.027661	-1.289786	-1.134178
-0.985163	-0.543062	-0.751114	-0.579666	-1.568886	-0.655024	-1.437382	-1.192002	-0.296381	-0.781113	-0.534155	-0.722891	-1.264463	-1.615054	-1.490306	-1.517571
-0.925594	-0.847191	-0.665112	-0.767749	-1.111848	-0.455446	-1.004718	-1.093838	-0.104824	-1.013365	-0.710638	-0.876156	-1.0446	-1.669745	-1.147184	-1.471917
-0.745503	-0.783297	-0.472733	-0.906827	-0.962721	-0.512732	-0.762223	-1.124607	0.044965	-0.903584	-0.679948	-0.815931	-1.123271	-1.693929	-1.157724	-1.363633
-0.983193	-0.843983	-0.625665	-1.009862	-0.850064	-0.496998	-0.553118	-1.073302	0.022006	-0.937685	-0.761926	-0.888104	-0.987094	-1.559512	-0.906652	-1.186569
-0.801679	-0.565352	-0.476341	-0.947696	-0.762372	-0.405764	-0.407206	-0.999705	0.000553999999999999	-0.936561	-0.849789	-0.966913	-0.968427	-1.504619	-0.749123	-1.093621
-1.034709	-0.61796	-0.564699	-0.967117	-0.649147	-0.298448	-0.299384	-0.905318	0.000553999999999999	-0.873019	-0.840939	-0.845398	-0.871796	-1.311175	-0.566084	-0.960998
-0.799542	-0.549128	-0.499532	-0.885361	-0.64908	-0.284522	-0.291312	-0.900962	-0.054437	-0.839994	-0.842897	-0.812912	-0.75968	-1.111595	-0.442121	-0.832762
-1.034709	-0.589551	-0.586686	-0.846007	-0.623996	-0.208629	-0.230836	-0.821019	-0.120009	-0.820399	-0.87045	-0.82678	-0.600635	-0.887288	-0.066709	-0.654927
-0.557418	-0.394581	-0.414095	-0.645916	-0.497447	-0.012538	-0.133646	-0.628181	0.011275	-0.578218	-0.749188	-0.574435	-0.47667	-0.709783	0.118126	-0.525372
-0.375334	-0.268021	-0.328443	-0.572233	-0.39617	0.104089	-0.072084	-0.503669	0.008246	-0.511615	-0.719514	-0.505903	-0.382828	-0.541496	0.277587	-0.412079
-0.254261	-0.169763	-0.242576	-0.476918	-0.345243	0.148476	-0.03141	-0.411632	0.090928	-0.375193	-0.630441	-0.379578	-0.395142	-0.544099	0.247075	-0.374632
-0.256491	-0.178017	-0.240536	-0.442776	-0.243201	0.233443	0.033817	-0.289975	0.069477	-0.367536	-0.627433	-0.41233	-0.41975	-0.574193	0.347701	-0.315356
-0.074648	-0.14508	-0.174634	-0.39781	-0.216819	0.244253	0.093799	-0.238337	0.097105	-0.336254	-0.585719	-0.370068	-0.198901	-0.357714	0.660621	-0.132892
-0.132725	-0.14929	-0.15649	-0.406693	-0.10223	0.318723	0.15477	-0.15722	0.118556	-0.337937	-0.583819	-0.418637	-0.271706	-0.450131	0.555691	-0.164485
-0.134821	-0.00126400000000002	-0.04687	-0.370573	-0.140179	0.227832	0.117459	-0.238337	0.124764	-0.353833	-0.56688	-0.41233	-0.284079	-0.488944	0.535715	-0.206219
-0.254261	-0.083365	-0.070185	-0.404781	-0.153461	0.19513	0.067403	-0.31464	0.121651	-0.343976	-0.528148	-0.376426	-0.324239	-0.521718	0.537148	-0.262871
-0.010722	0.056515	-0.00412499999999999	-0.394021	-0.230538	0.067876	-0.044195	-0.459526	0.107825	-0.404767	-0.542079	-0.401423	-0.439787	-0.67122	0.385708	-0.420925
-0.318127	0.01935	-0.089536	-0.432017	-0.242691	0.062102	-0.073199	-0.495863	-0.000904000000000016	-0.494907	-0.590625	-0.494852	-0.508555	-0.713729	0.369593	-0.474231
-0.015181	0.089558	-0.002025	-0.387021	-0.242249	0.092521	-0.126562	-0.522678	-0.045311	-0.566902	-0.615556	-0.496624	-0.470357	-0.656533	0.459733	-0.439775
-0.194691	0.114438	-0.025508	-0.419359	-0.31961	0.00153200000000001	-0.215918	-0.610988	-0.129214	-0.643072	-0.670965	-0.565033	-0.58401	-0.767083	0.29734	-0.5077
-0.012682	0.292673	0.061101	-0.359793	-0.369597	-0.014054	-0.236672	-0.618097	-0.094161	-0.590317	-0.6235	-0.513746	-0.632913	-0.821684	0.227338	-0.529343
-0.130162	0.271987	0.016339	-0.41553	-0.370201	-0.048569	-0.269979	-0.625024	-0.176452	-0.681586	-0.664128	-0.580612	-0.585496	-0.75594	0.387293	-0.464353
-0.072855	0.284269	0.039679	-0.395923	-0.35725	-0.072529	-0.269979	-0.612274	-0.184074	-0.707153	-0.694803	-0.613275	-0.632916	-0.831124	0.274786	-0.475919
-0.196622	0.205404	-0.025508	-0.455428	-0.357437	-0.074617	-0.277189	-0.614577	-0.167304	-0.666431	-0.679934	-0.610166	-0.619215	-0.821684	0.398157	-0.477191
-0.198084	0.16813	-0.000880999999999993	-0.471811	-0.382957	-0.102714	-0.301464	-0.693479	-0.19165	-0.726667	-0.693802	-0.621024	-0.5993	-0.795294	0.344793	-0.486779
-0.194691	0.073316	-0.048802	-0.487649	-0.4336	-0.168734	-0.324839	-0.749115	-0.203817	-0.745531	-0.667074	-0.600665	-0.678798	-0.860068	0.347701	-0.527364
-0.561621	-0.38605	-0.025508	-0.715986	-0.088379	-0.056342	0.100488	-0.909675	-0.072806	-1.256048	-1.170429	-0.98547	-0.732306	-1.380738	0.086351	-1.00183
-0.796958	-1.212133	-0.15825	-1.28172	0.12916	-0.098553	0.263576	-1.071765	-0.065148	-1.543846	-1.21232	-1.115841	-0.727666	-1.475549	-0.082507	-1.149892
-0.801679	-1.303651	-0.155518	-1.471404	0.257912	-0.030293	0.237893	-1.02821	-0.010157	-1.405367	-0.984403	-0.896226	-0.694127	-1.389144	-0.141366	-1.04058
-0.924215	-1.406688	-0.262811	-1.609382	0.244746	0.00776400000000002	0.19582	-0.985647	-0.013206	-1.33082	-0.89504	-0.825353	-0.707892	-1.280617	-0.200075	-0.922208
-0.624652	-1.188262	-0.109723	-1.530903	0.231622	-0.006332	0.107419	-0.971753	0.069477	-1.108983	-0.781659	-0.675166	-0.602423	-1.074416	-0.031618	-0.738866
-0.799542	-1.156243	-0.22222	-1.509507	0.218796	0.05999	0.083768	-0.875035	0.118556	-0.929938	-0.678923	-0.551014	-0.60087	-0.998045	-0.022486	-0.617439
-0.442182	-0.968459	-0.043508	-1.353891	0.218954	0.11653	0.076497	-0.796549	0.136988	-0.807895	-0.616557	-0.460771	-0.518997	-0.815137	0.084882	-0.441597
-0.679872	-1.088502	-0.221311	-1.369286	0.218954	0.10452	0.051954	-0.76764	0.203078	-0.683818	-0.56195	-0.376426	-0.47046	-0.715689	0.225812	-0.353566
-0.796958	-1.040549	-0.200027	-1.297062	0.296733	0.183082	0.035606	-0.720166	0.215512	-0.621785	-0.549863	-0.388627	-0.505789	-0.704587	0.245599	-0.303147
-0.439167	-0.81986	-0.00412499999999999	-1.147374	0.400228	0.261834	0.082859	-0.645904	0.309682	-0.539932	-0.4811	-0.278774	-0.408825	-0.594539	0.38459	-0.237541
-0.196622	-0.662556	0.171465	-1.020054	0.465738	0.26831	0.091954	-0.612274	0.307876	-0.526036	-0.435566	-0.244819	-0.491892	-0.66073	0.344793	-0.261516
-0.251567	-0.504112	0.255642	-0.941292	0.465738	0.26831	0.084683	-0.649452	0.289439	-0.551587	-0.452419	-0.30269	-0.381297	-0.569042	0.537148	-0.215104
-0.559748	-0.634251	0.191919	-0.995127	0.504792	0.306651	0.083768	-0.635466	0.303349	-0.565225	-0.452419	-0.277632	-0.452088	-0.610296	0.466683	-0.258821
-0.375334	-0.492205	0.255642	-0.978794	0.440043	0.1874	0.021078	-0.717873	0.269311	-0.566902	-0.444578	-0.304471	-0.436675	-0.630014	0.495815	-0.285437
-0.547711	-0.467138	0.210039	-0.985392	0.517896	0.294593	0.060132	-0.651758	0.269311	-0.553288	-0.403678	-0.237032	-0.436675	-0.641147	0.485245	-0.303147
-0.492999	-0.475563	0.2548	-0.974871	0.479069	0.18959	-0.010678	-0.699324	0.094008	-0.707153	-0.513187	-0.423228	-0.544206	-0.704587	0.375149	-0.353566
-0.618726	-0.540912	0.190955	-1.014301	0.466505	0.177592	-0.064137	-0.702824	0.069477	-0.693586	-0.487334	-0.373256	-0.518083	-0.690859	0.38459	-0.351492
-0.561621	-0.443428	0.213442	-0.993212	0.466228	0.232244	-0.072289	-0.67383	-0.00709100000000001	-0.744022	-0.534098	-0.462249	-0.596246	-0.74227	0.387293	-0.392357
-0.738559	-0.552786	0.124587	-1.001821	0.361468	0.183082	-0.201461	-0.714311	-0.055993	-0.74997	-0.505182	-0.430916	-0.690995	-0.74227	0.207618	-0.471175
-0.49844	-0.259696	0.278128	-0.859518	0.244746	0.126439	-0.349072	-0.780314	-0.194718	-0.933719	-0.557866	-0.572701	-0.70635	-0.732017	0.195534	-0.362398
-0.313533	0.151928	0.32226	-0.752405	0.09012	0.076232	-0.448655	-0.862395	-0.179466	-1.035257	-0.524212	-0.574435	-0.69721	-0.696071	0.245599	-0.200012
-0.132725	0.400994	0.433371	-0.672156	-0.038233	-0.016196	-0.526473	-0.946545	-0.103296	-1.018145	-0.48341	-0.549554	-0.637615	-0.605119	0.235126	-0.1384
-0.318127	0.234457	0.281158	-0.709924	-0.025843	0.033867	-0.520171	-0.914206	0.052604	-0.811653	-0.318789	-0.368639	-0.626913	-0.62146	0.256167	-0.151456
-0.375334	0.330349	0.344832	-0.691428	7.89999999999957E-05	0.092521	-0.479979	-0.84392	0.149327	-0.740225	-0.327691	-0.398252	-0.674302	-0.624032	0.136272	-0.182261
-0.427631	0.327017	0.232399	-0.744365	-0.077162	-0.048569	-0.552274	-0.900244	0.184649	-0.559277	-0.329748	-0.454517	-0.672772	-0.582802	0.106071	-0.122697
-0.244799	0.539071	0.2548	-0.567075	-0.141334	-0.0266	-0.615518	-0.894353	0.240136	-0.397063	-0.309744	-0.415493	-0.782543	-0.667718	0.08777	-0.245067
-0.423612	0.618749	0.166855	-0.435666	-0.230538	-0.062631	-0.692109	-0.902473	0.300209	-0.302818	-0.258727	-0.326377	-0.800866	-0.676353	0.125808	-0.31335
-0.189434	0.85822	0.213442	-0.337371	-0.31961	-0.168734	-0.791593	-0.957805	0.143122	-0.445779	-0.339796	-0.460771	-0.840372	-0.733622	0.127126	-0.367751
-0.130162	1.006279	0.190955	-0.350092	-0.243437	-0.092767	-0.816289	-0.923147	0.077128	-0.500347	-0.380755	-0.513746	-0.885974	-0.821684	0.096849	-0.407227
-0.0678609999999999	1.070001	0.191919	-0.352065	-0.294325	-0.17281	-0.893262	-0.970347	0.063335	-0.506393	-0.371755	-0.510643	-0.860182	-0.780745	0.186287	-0.416092
-0.307099	1.023478	0.102228	-0.420375	-0.306974	-0.236675	-0.961336	-1.01527	0.005233	-0.554787	-0.374764	-0.530824	-0.838884	-0.821684	0.096849	-0.4575
-0.194691	1.112673	0.19519	-0.406693	-0.255505	-0.178602	-0.943001	-0.985647	-0.013206	-0.580508	-0.397702	-0.588421	-0.855434	-0.916925	0.028861	-0.550967
-0.127133	1.164048	0.189214	-0.422358	-0.268777	-0.25267	-0.992181	-1.043966	-0.046712	-0.61894	-0.396706	-0.642468	-0.857119	-0.967463	-0.112405	-0.610686
-0.134821	1.214989	0.23931	-0.433898	-0.242881	-0.246553	-0.974708	-1.045339	-0.01925	-0.601634	-0.380755	-0.636434	-0.785574	-1.000613	-0.102904	-0.637027
-0.0646639999999999	1.113002	0.168512	-0.49643	-0.319738	-0.372115	-1.045079	-1.137978	-0.011496	-0.642332	-0.355783	-0.63946	-0.778028	-1.046393	-0.102143	-0.693031
-0.439167	0.198649	0.130923	-1.287061	0.180398	-0.449524	-0.612987	-1.258051	0.32641	-1.100855	-0.411089	-0.94092	-0.741151	-1.264608	-0.198615	-0.818133
-0.375334	-0.349635	-0.00412499999999999	-1.954648	0.361007	-0.308458	-0.484256	-1.189283	0.315591	-1.219728	-0.397061	-0.979356	-0.706075	-1.302493	-0.237571	-0.818133
-0.256491	-0.243478	0.020462	-2.090785	0.167434	-0.395931	-0.645001	-1.294572	0.147757	-1.223409	-0.434243	-1.031559	-0.695325	-1.313543	-0.226901	-0.750809
-0.134821	-0.00126400000000002	-0.002025	-2.097716	0.025708	-0.393904	-0.760564	-1.315026	0.068024	-1.204069	-0.432482	-0.991513	-0.668067	-1.273294	-0.129466	-0.627493
-0.319728	0.102167	-0.063527	-2.089098	-0.000221000000000027	-0.330337	-0.838497	-1.298977	0.040495	-1.184698	-0.442551	-0.931476	-0.596246	-1.183948	0.037839	-0.433803
-0.192295	0.38886	-0.025508	-1.964954	-0.090011	-0.356185	-0.891625	-1.317224	0.023769	-1.09971	-0.409679	-0.883081	-0.648307	-1.214655	0.00647500000000001	-0.388299
-0.259555	0.547069	0.00159399999999998	-1.845797	0.000261000000000011	-0.164575	-0.835995	-1.196524	0.054255	-0.9695	-0.38574	-0.821915	-0.590168	-1.165621	0.125808	-0.339966
-0.251567	0.677784	0.018276	-1.720618	-0.013302	-0.190782	-0.856011	-1.193638	0.040495	-0.899922	-0.420665	-0.835758	-0.502594	-1.016745	0.224141	-0.279213
-0.319728	0.773785	0.10954	-1.588514	0.025708	-0.128725	-0.799555	-1.099074	0.157392	-0.707489	-0.319733	-0.682077	-0.527202	-1.005696	0.204269	-0.290145
-0.196622	0.90083	0.194037	-1.443189	0.051359	-0.076685	-0.729505	-1.01527	0.201752	-0.616498	-0.257724	-0.570836	-0.488651	-0.901954	0.244031	-0.20678
-0.258257	0.942898	0.326517	-1.315064	0.076669	-0.044653	-0.670638	-0.976938	0.232411	-0.581959	-0.252723	-0.569704	-0.408825	-0.773101	0.414137	-0.0525550000000001
-0.132725	1.11874	0.409762	-1.166464	0.15417	0.039692	-0.568309	-0.886227	0.270923	-0.521481	-0.20559	-0.516831	-0.53299	-0.831124	0.174247	-0.0461289999999999
-0.196622	1.202876	0.457174	-1.101476	0.270558	0.217169	-0.427967	-0.75002	0.343384	-0.435929	-0.159216	-0.437298	-0.442597	-0.668625	0.363977	0.133428
-0.439167	1.202876	0.412806	-1.087134	0.270725	0.207189	-0.387676	-0.75592	0.453263	-0.349323	-0.09805	-0.371762	-0.334645	-0.500118	0.48399	0.271272
-0.010722	1.498687	0.610127	-0.907669	0.296136	0.265626	-0.312153	-0.706981	0.519953	-0.321958	-0.089966	-0.315429	-0.339544	-0.455356	0.484385	0.327232
-0.012682	1.55935	0.631892	-0.872053	0.232327	0.280357	-0.245678	-0.695755	0.527751	-0.315821	-0.065847	-0.246432	-0.368969	-0.424227	0.465303	0.383368
0.111751	1.550276	0.632959	-0.825811	0.218796	0.259718	-0.232128	-0.75002	0.450197	-0.46836	-0.148372	-0.352919	-0.27638	-0.282345	0.577015	0.464094
0.23686	1.754305	0.675485	-0.773589	0.16784	0.242049	-0.190687	-0.753662	0.547915	-0.423746	-0.11317	-0.243317	-0.358181	-0.307486	0.425472	0.41468
-0.123643	1.462863	0.429774	-0.872581	0.141371	0.273918	-0.146412	-0.752251	0.558793	-0.380403	-0.060826	-0.139594	-0.231505	-0.100693	0.678525	0.571663
0.0607839999999999	1.451301	0.363858	-0.849491	0.193019	0.383507	-0.074996	-0.642286	0.502903	-0.431224	-0.121226	-0.196168	-0.157205	0.008381	0.676982	0.616526
0.114048	1.444262	0.410713	-0.796742	0.1282	0.338669	-0.061364	-0.632633	0.519953	-0.366748	-0.107138	-0.16477	-0.177313	0.013675	0.706502	0.650231
0.174221	1.444262	0.38907	-0.786165	0.128436	0.397768	0.027437	-0.538738	0.622585	-0.254881	-0.061836	-0.049761	-0.279278	-0.056891	0.54447	0.591579
0.297339	1.335393	0.369621	-0.779505	0.141527	0.440606	0.061046	-0.484123	0.516863	-0.323314	-0.149376	-0.193057	-0.284079	-0.03964	0.595695	0.575982
0.176687	1.260096	0.321354	-0.830438	0.07703	0.342901	0.044688	-0.542384	0.583674	-0.248695	-0.11115	-0.131681	-0.237719	0.00234099999999998	0.706502	0.57816
0.183038	1.188024	0.36466	-0.85355	0.064273	0.26613	0.021993	-0.590099	0.636604	-0.193834	-0.074931	-0.049761	-0.275993	-0.000831999999999999	0.644959	0.544282
0.309517	1.12542	0.407287	-0.887176	0.141527	0.34505	0.037425	-0.563301	0.608574	-0.234991	-0.117194	-0.159968	-0.293274	-0.059593	0.706502	0.463648
0.36563	1.127834	0.475765	-0.868104	0.167263	0.332967	0.02925	-0.584199	0.624322	-0.249568	-0.134154	-0.173991	-0.399694	-0.163276	0.504396	0.33156
0.29967	0.876629	0.388098	-0.930743	0.141371	0.286013	-0.043304	-0.654957	0.617967	-0.237383	-0.107138	-0.158455	-0.452088	-0.221637	0.445379	0.251541
0.419229	0.790901	0.436737	-0.949027	0.154477	0.304487	-0.073199	-0.671293	0.572786	-0.309644	-0.138296	-0.235423	-0.393617	-0.173853	0.515756	0.236222
0.302477	0.704345	0.388098	-0.951832	0.141904	0.26831	-0.119335	-0.703898	0.526189	-0.325738	-0.133285	-0.237032	-0.381297	-0.185156	0.52518	0.209284
0.423129	0.677784	0.435551	-0.947117	0.115998	0.239866	-0.176238	-0.718834	0.498227	-0.353087	-0.122232	-0.243317	-0.291664	-0.084869	0.594888	0.246859
0.489129	0.645082	0.45406	-0.930743	0.154662	0.294593	-0.198805	-0.648183	0.47341	-0.362994	-0.134297	-0.268419	-0.293274	-0.112815	0.625321	0.264784
0.295489	0.480337	0.392367	-1.007593	0.09012	0.239866	-0.237572	-0.677187	0.454894	-0.328055	-0.110097	-0.255767	-0.307235	-0.168603	0.625321	0.255818
0.549608	0.506327	0.433371	-0.968245	0.09012	0.251913	-0.24478	-0.645904	0.426966	-0.341749	-0.112151	-0.251162	-0.347381	-0.265909	0.546346	0.198201
0.419229	0.442546	0.349262	-0.986447	0.103056	0.27819	-0.22135	-0.587812	0.36353	-0.351632	-0.125223	-0.315429	-0.387354	-0.3473	0.454107	0.175613
-0.00539199999999995	0.247963	0.213442	-1.085208	0.000261000000000011	0.130687	-0.322167	-0.683056	0.360402	-0.30446	-0.085991	-0.265284	-0.330374	-0.299719	0.625321	0.255818
-0.072855	0.213771	0.215519	-1.103362	-0.013211	0.094039	-0.333792	-0.683952	0.255435	-0.419984	-0.186532	-0.438905	-0.375023	-0.379126	0.647697	0.202986
-0.072855	0.292673	0.281158	-1.080386	-0.064307	0.055829	-0.356273	-0.700276	0.266224	-0.349323	-0.122232	-0.366971	-0.338081	-0.351516	0.70773	0.236222
0.17223	0.430268	0.413949	-1.01136	-0.102728	-0.024561	-0.402055	-0.745525	0.312525	-0.282279	-0.084976	-0.308903	-0.441318	-0.479349	0.555691	0.153918
0.23686	0.509686	0.521124	-0.97398	0.000261000000000011	0.033867	-0.368877	-0.712034	0.357293	-0.312051	-0.039653	-0.324786	-0.438239	-0.549246	0.434114	0.058142
0.047797	0.313394	0.434429	-1.107087	0.064273	0.00358899999999998	-0.360797	-0.749115	0.445499	-0.24117	0.073433	-0.252604	-0.378184	-0.535486	0.434114	0.020364
-0.192295	0.160474	0.366455	-1.2075	0.141371	0.067876	-0.323066	-0.677187	0.385137	-0.345545	0.013818	-0.366971	-0.333506	-0.540575	0.454812	0.0649580000000001
-0.318127	0.172506	0.301647	-1.234128	0.167263	0.08198	-0.322167	-0.672627	0.335686	-0.369114	-0.01846	-0.466952	-0.27638	-0.479349	0.566305	0.115983
-0.618726	0.172506	0.281158	-1.269367	0.193184	0.084048	-0.322167	-0.643614	0.300209	-0.412408	-0.030537	-0.488817	-0.265552	-0.429275	0.586281	0.124935
-0.436968	0.359586	0.390105	-1.198852	0.193576	0.086134	-0.322167	-0.612274	0.314118	-0.371373	-0.055697	-0.535552	-0.279414	-0.4593	0.557073	0.080758
-0.137605	0.681353	0.525671	-1.110747	0.155343	0.092521	-0.311332	-0.5867	0.366676	-0.273194	-0.00328799999999999	-0.432691	-0.188014	-0.361431	0.720446	0.096625
-0.070592	0.763758	0.49749	-1.099574	0.206154	0.124346	-0.297884	-0.516839	0.444085	-0.160961	0.064413	-0.304471	-0.285647	-0.385357	0.494747	0.036064
0.174221	1.11874	0.676511	-0.95092	0.206797	0.171049	-0.272651	-0.470182	0.440926	-0.151045	0.028994	-0.363897	-0.191292	-0.321329	0.626285	0.056026
0.174221	1.10693	0.58636	-0.972084	0.296552	0.326548	-0.196084	-0.370865	0.554185	-0.028467	0.130164	-0.167898	-0.251653	-0.337698	0.535715	0.011912
-0.014169	1.002388	0.546101	-0.967117	0.310188	0.373564	-0.162629	-0.323978	0.529335	-0.052241	0.082571	-0.249527	-0.23928	-0.323872	0.535715	0.00298699999999996
-0.0678609999999999	1.137005	0.541892	-0.922122	0.309393	0.405653	-0.101205	-0.282984	0.53568	-0.016762	0.11409	-0.172621	-0.268508	-0.352545	0.383936	-0.030519
0.10993	1.079763	0.566657	-0.894134	0.284631	0.39003	-0.08301	-0.271122	0.649234	0.078504	0.191007	-0.035561	-0.26402	-0.298736	0.414946	-0.00802899999999995
0.057247	1.056027	0.541	-0.897101	0.336025	0.442795	-0.066681	-0.254741	0.652437	0.020898	0.146461	-0.08288	-0.214514	-0.268485	0.505204	0.00508900000000001
0.362649	1.157909	0.652697	-0.842212	0.309957	0.440606	-0.02051	-0.275898	0.670979	0.019133	0.167621	-0.056005	-0.168054	-0.218127	0.586281	0.0449900000000001
0.114048	0.855798	0.520147	-0.925952	0.245328	0.373564	-0.058511	-0.33216	0.60394	-0.046153	0.127078	-0.134779	-0.181616	-0.205079	0.463944	0.00257400000000008
0.297339	0.838006	0.611213	-0.869139	0.323485	0.461559	-0.033014	-0.324972	0.646048	-0.052241	0.136229	-0.078135	-0.164901	-0.201663	0.52518	0.025033
0.29967	0.544637	0.498422	-0.925952	0.296733	0.436292	-0.00510500000000003	-0.355634	0.677366	0.010965	0.15963	-0.014998	-0.228004	-0.269315	0.353812	-0.0593029999999999
0.420937	0.447519	0.456073	-0.940323	0.33627	0.45932	0.093257	-0.337945	0.694674	0.06255	0.077553	-0.018184	-0.169175	-0.241505	0.433821	0.00473100000000004
0.176687	0.376906	0.366455	-0.949027	0.427216	0.483524	0.257278	-0.281703	0.687084	0.0844219999999999	-0.047587	-0.037046	-0.131815	-0.266652	0.524134	0.0888680000000002
0.23686	0.406255	0.433371	-0.938439	0.466505	0.473643	0.361748	-0.271122	0.598295	-0.014806	-0.200438	-0.166248	-0.079452	-0.274584	0.574824	0.164523
0.17223	0.289085	0.34692	-0.990177	0.531529	0.497847	0.506095	-0.231162	0.447263	-0.176874	-0.324781	-0.282524	-0.051614	-0.298736	0.636943	0.26052
0.545018	0.589289	0.478817	-0.883509	0.530778	0.424159	0.566644	-0.27827	0.362261	-0.271445	-0.411678	-0.371762	-0.102816	-0.381617	0.638591	0.307611
0.486282	0.506327	0.409762	-0.95092	0.543675	0.422021	0.637662	-0.251285	0.351511	-0.314723	-0.422612	-0.326377	-0.109108	-0.399167	0.535715	0.291722
0.362649	0.380271	0.433371	-0.97586	0.557009	0.38566	0.662694	-0.240708	0.305367	-0.334366	-0.454478	-0.387344	-0.057766	-0.407865	0.565184	0.284873
0.0607839999999999	0.177783	0.277244	-1.053616	0.557517	0.361481	0.655346	-0.246542	0.242151	-0.385382	-0.51421	-0.490346	-0.01583	-0.381617	0.647697	0.285405
0.23686	0.061353	0.279075	-1.082253	0.557517	0.335148	0.622973	-0.254741	0.154484	-0.451969	-0.532049	-0.498047	-0.140054	-0.499295	0.43487	0.169197
-0.010722	-0.218926	0.107139	-1.214902	0.467123	0.299008	0.552996	-0.34611	0.098998	-0.477376	-0.549041	-0.53243	-0.121527	-0.493109	0.425472	0.113883
0.047797	-0.1902	0.151133	-1.193793	0.466228	0.318723	0.534356	-0.353268	0.102193	-0.428481	-0.493286	-0.423228	-0.194386	-0.584273	0.326193	0.0387289999999999
-0.130162	-0.398163	-0.005083	-1.28172	0.426728	0.316571	0.509424	-0.366176	0.068143	-0.438122	-0.480445	-0.413921	-0.124602	-0.498076	0.376526	0.098683
-0.132725	-0.443428	-0.068213	-1.295895	0.413887	0.34505	0.486475	-0.353268	0.068143	-0.420583	-0.47248	-0.399876	-0.050063	-0.454322	0.455983	0.16289
-0.492999	-0.544398	-0.221311	-1.360697	0.37518	0.320895	0.47916	-0.33216	0.039343	-0.395183	-0.460436	-0.40915	-0.11066	-0.506861	0.396364	0.173953
-0.251567	-0.389702	-0.048802	-1.255143	0.426962	0.41421	0.518718	-0.246542	0.102193	-0.324549	-0.429598	-0.337315	-0.150894	-0.539257	0.358599	0.156691
-0.436968	-0.443428	-0.111897	-1.271208	0.414403	0.418615	0.529032	-0.220561	0.165157	-0.222255	-0.382698	-0.26213	-0.178892	-0.556827	0.265404	0.185021
-0.072855	-0.210601	0.063207	-1.144286	0.466228	0.471415	0.561324	-0.142889	0.148079	-0.253767	-0.396686	-0.301323	-0.185039	-0.566672	0.32793	0.207854
-0.557418	-0.45537	-0.11289	-1.257006	0.492444	0.485739	0.561324	-0.127389	0.161955	-0.23014	-0.370741	-0.290365	-0.133941	-0.48185	0.396364	0.274311
-0.316061	-0.288387	0.083545	-1.140602	0.54389	0.519922	0.574969	-0.078112	0.206859	-0.194645	-0.359631	-0.305902	-0.062502	-0.404211	0.50648	0.358992
-0.372512	-0.234298	0.036926	-1.149267	0.557804	0.514413	0.57799	-0.049504	0.203632	-0.202563	-0.348717	-0.312271	-0.137002	-0.484332	0.426954	0.296505
-0.192295	-0.066426	0.190053	-1.090935	0.479617	0.37796	0.505085	-0.140465	0.194061	-0.231963	-0.352785	-0.349835	-0.01583	-0.365325	0.607763	0.41045
-0.375334	-0.132638	0.147931	-1.105232	0.466228	0.306651	0.463547	-0.182954	0.221837	-0.200541	-0.323763	-0.329525	-0.032823	-0.411633	0.629633	0.395142
-0.196622	0.015393	0.280085	-1.02566	0.505562	0.34941	0.456241	-0.161719	0.274285	-0.155228	-0.267636	-0.258958	-0.03577	-0.416487	0.640714	0.404197
-0.855071	-0.377936	0.016339	-1.184594	0.570386	0.41421	0.486475	-0.107613	0.243288	-0.200541	-0.305789	-0.338857	-0.079501	-0.46176	0.567896	0.38818
-0.620893	-0.161436	0.169433	-1.105232	0.466228	0.306651	0.424052	-0.201763	0.309682	-0.101862	-0.238683	-0.274633	-0.152375	-0.55539	0.488371	0.363857
-0.790448	-0.196821	0.143844	-1.143544	0.596165	0.450571	0.486475	-0.088751	0.267929	-0.143291	-0.239698	-0.266692	-0.13055	-0.535179	0.569962	0.422326
-0.613033	-0.1157	0.233198	-1.113902	0.570135	0.438438	0.455248	-0.107613	0.240136	-0.160961	-0.236692	-0.286834	-0.08099	-0.5441	0.669499	0.457796
-0.613033	-0.176592	0.143844	-1.110095	0.557517	0.41421	0.455248	-0.083916	0.190905	-0.222072	-0.294793	-0.373065	2.20000000000012E-05	-0.521484	0.782667	0.507324
-0.618726	-0.329017	0.299732	-1.175935	0.583807	0.292416	0.408464	-0.169918	0.271098	-0.15319	-0.187543	-0.269742	0.013924	-0.557794	0.811496	0.498242
-0.740856	-0.60971	0.213442	-1.283554	0.766966	0.397768	0.447942	-0.094561	0.246458	-0.23796	-0.218627	-0.355983	-0.023356	-0.639791	0.771492	0.47388
-0.801679	-0.520684	0.170418	-1.297707	0.780189	0.34505	0.503087	-0.075695	0.320432	-0.139388	-0.120214	-0.166111	0.090196	-0.594053	0.880741	0.605837
-0.801679	-0.374249	0.104988	-1.390813	0.819599	0.316571	0.495771	-0.121626	0.314118	-0.196177	-0.099054	-0.116619	0.065242	-0.632671	0.71853	0.605837
-1.100279	-0.480124	-0.025508	-1.520437	0.80636	0.273918	0.455248	-0.164135	0.285016	-0.316545	-0.125223	-0.244622	0.16681	-0.5892	0.798747	0.670999
-0.921029	-0.317043	0.060142	-1.508189	0.753231	0.2151	0.397243	-0.227752	0.331192	-0.300641	-0.014452	-0.161087	0.175012	-0.606717	0.665499	0.623433
-0.561621	-0.136967	0.238134	-1.45572	0.648775	0.096094	0.31115	-0.334535	0.411719	-0.326404	0.023984	-0.140919	0.201231	-0.55539	0.71853	0.65766
-0.436968	-0.079476	0.235971	-1.464481	0.59641	0.079935	0.262611	-0.403605	0.43968	-0.316545	0.103847	-0.115707	0.16681	-0.616582	0.627721	0.624037
-0.851755	-0.230968	0.07991	-1.529112	0.556786	0.049744	0.247089	-0.445687	0.5421	-0.269341	0.18997	-0.028837	0.271781	-0.51016	0.791486	0.671722
-0.618726	-0.178017	0.169433	-1.487229	0.622217	0.116185	0.294639	-0.368526	0.579999	-0.259666	0.144668	-0.128565	0.364803	-0.417995	0.83896	0.713808
-0.622605	-0.210327	0.151133	-1.516898	0.674857	0.1747	0.415762	-0.265322	0.672988	-0.139388	0.185983	-0.08742	0.32107	-0.463053	0.685614	0.659293
-0.49844	-0.079476	0.169433	-1.464481	0.727616	0.231344	0.520712	-0.182954	0.750196	-0.068197	0.145745	-0.111255	0.330293	-0.440545	0.7266	0.675279
-0.072855	0.209684	0.34692	-1.364518	0.766432	0.241373	0.5843	-0.101783	0.839359	0.0546979999999999	0.175335	-0.054471	0.351955	-0.380034	0.893908	0.694142
-0.0610040000000001	0.347596	0.408049	-1.331067	0.740277	0.229265	0.624985	-0.080518	0.829411	0.034773	0.113037	-0.177171	0.408696	-0.356511	0.900857	0.702567
-0.192295	0.284269	0.344832	-1.359276	0.818805	0.32032	0.69611	0.00331899999999996	0.836024	0.032778	0.070755	-0.232318	0.397708	-0.354023	0.859093	0.673133
-0.192295	0.342558	0.343883	-1.382092	0.792607	0.267668	0.705489	0.00331899999999996	0.93211	0.1501	0.134765	-0.1191	0.395211	-0.316186	0.796763	0.659293
-0.134821	0.38411	0.345844	-1.375068	0.805824	0.26973	0.729574	0.022246	0.946345	0.1501	0.140795	-0.144281	0.385084	-0.328901	0.849753	0.607951
-0.074648	0.475913	0.391204	-1.341678	0.819599	0.300223	0.747358	0.037724	0.942978	0.132138	0.133675	-0.161622	0.426324	-0.310038	0.868584	0.603146
-0.196622	0.484246	0.34692	-1.364518	0.793422	0.288127	0.748398	0.040147	1.039399	0.235812	0.195638	-0.079699	0.493926	-0.211867	0.981494	0.619158
-0.258257	0.584676	0.391204	-1.318822	0.820237	0.332967	0.742113	0.05327	1.007475	0.185894	0.13151	-0.218196	0.454354	-0.267253	0.98321	0.57436
-0.254261	0.681353	0.366455	-1.290734	0.767929	0.306651	0.734784	0.034337	1.08301	0.291704	0.21053	-0.09231	0.406139	-0.316186	0.796763	0.533317
-0.134821	0.773785	0.390105	-1.28192	0.713898	0.255547	0.698146	-0.001444	1.046905	0.229793	0.191294	-0.139594	0.401029	-0.346444	0.766848	0.479529
-0.379598	0.731792	0.301647	-1.329391	0.662228	0.221371	0.676145	-0.004942	1.043543	0.215841	0.178119	-0.171008	0.341231	-0.424227	0.686422	0.425833
-0.260384	0.85822	0.370804	-1.287061	0.688311	0.247634	0.676145	0.022246	1.02512	0.20585	0.194544	-0.161622	0.328064	-0.452754	0.624826	0.443462
-0.256491	0.841492	0.344832	-1.303048	0.689267	0.280357	0.685559	0.048403	1.028521	0.237748	0.225305	-0.087498	0.290805	-0.45682	0.606274	0.452935
-0.382009	0.849924	0.304995	-1.322226	0.622454	0.203004	0.642705	-0.022728	0.93211	0.08847	0.106294	-0.254305	0.306748	-0.47683	0.615724	0.508784
-0.559748	0.883559	0.170418	-1.352237	0.478828	0.07791	0.592635	-0.161911	0.817692	-0.068213	0.022616	-0.337315	0.284922	-0.499295	0.655831	0.564768
-0.259555	1.138017	0.325358	-1.260755	0.415004	0.035982	0.581078	-0.190139	0.754393	-0.111298	0.048395	-0.330931	0.279867	-0.506861	0.666359	0.591932
-0.377697	0.981336	0.212497	-1.313597	0.453132	0.08198	0.593647	-0.159571	0.800164	-0.01851	0.111247	-0.232318	0.284922	-0.485519	0.716126	0.638992
-0.198084	1.036006	0.34806	-1.213197	0.504792	0.146429	0.617656	-0.092392	0.80351	-0.000790000000000013	0.101355	-0.276252	0.20532	-0.557866	0.554334	0.62089
-0.251567	0.957141	0.298868	-1.179612	0.570659	0.247634	0.676145	-0.017984	0.913801	0.120207	0.186899	-0.166248	0.310163	-0.449268	0.685614	0.720273
-0.377697	0.803321	0.281158	-1.209707	0.596676	0.247634	0.684513	0.000931999999999988	0.892808	0.108427	0.196737	-0.215064	0.334658	-0.411633	0.769466	0.761536
-0.251567	0.757801	0.298067	-1.179612	0.569906	0.198904	0.663695	-0.010843	0.993223	0.200168	0.280835	-0.131681	0.310163	-0.382799	0.685614	0.806116
-0.010722	0.841492	0.432376	-1.101956	0.531258	0.162616	0.649015	-0.043993	1.057106	0.30569	0.361839	-0.06549	0.429742	-0.27719	0.837835	0.869545
0.2347	0.769961	0.432376	-1.089563	0.596963	0.276043	0.698146	0.047082	1.046905	0.275964	0.377797	-0.063953	0.417077	-0.240742	0.817667	0.86735
0.174221	0.71085	0.432376	-1.124939	0.531529	0.183082	0.634352	-0.022728	1.067984	0.307801	0.421995	-0.00395799999999999	0.482917	-0.156347	0.952059	0.892582
0.23686	0.740386	0.455035	-1.089563	0.597602	0.282546	0.660457	0.051852	1.014241	0.235848	0.38338	-0.06549	0.470259	-0.13109	0.94114	0.842571
-0.00539199999999995	0.568494	0.299732	-1.191985	0.493382	0.215809	0.596732	-0.023852	0.993223	0.224119	0.383868	-0.027631	0.407876	-0.157312	0.736259	0.765357
0.0541779999999999	0.451026	0.190955	-1.251962	0.518403	0.261834	0.570674	-0.001444	0.885339	0.150129	0.308955	-0.101707	0.406139	-0.118132	0.746716	0.742804
0.23686	0.521963	0.3027	-1.174419	0.480249	0.256276	0.556057	0.00812499999999999	0.900324	0.200168	0.343055	0.000778000000000001	0.324533	-0.168603	0.564532	0.641177
0.35659	0.463378	0.237021	-1.16206	0.518403	0.38566	0.587352	0.081483	0.842712	0.17012	0.297332	0.00709200000000001	0.358983	-0.092868	0.69601	0.679608
0.355537	0.438492	0.240549	-1.156677	0.40106	0.288127	0.52172	0.028138	0.789336	0.180127	0.289078	-0.018184	0.279867	-0.151216	0.626285	0.643732
0.360148	0.38411	0.194037	-1.126723	0.376046	0.29679	0.533123	0.075615	0.775171	0.180127	0.262669	-0.00395799999999999	0.368184	-0.047509	0.797517	0.749721
-0.127133	0.201596	-0.00597800000000004	-1.225442	0.37518	0.316571	0.56234	0.098058	0.789336	0.207971	0.256619	-0.018184	0.25635	-0.167693	0.666359	0.684368
-0.00539199999999995	0.234457	0.104005	-1.191985	0.284136	0.19092	0.489465	-0.012088	0.856913	0.263759	0.292389	0.013482	0.316004	-0.11718	0.767919	0.734163
-0.0523	0.119495	0.03473	-1.2075	0.310188	0.178849	0.496772	-0.022728	0.86711	0.223779	0.263318	-0.084268	0.432325	-0.018459	0.952059	0.804446
-0.123643	0.151928	0.14611	-1.165395	0.323765	0.183082	0.483178	-0.055785	0.860293	0.225841	0.313878	-0.079699	0.437293	-0.064036	0.970708	0.808717
0.114048	0.126722	0.214449	-1.147907	0.375448	0.140587	0.450953	-0.079419	0.931469	0.233761	0.359189	-0.07328	0.492286	-0.032393	1.054761	0.81148
-0.130162	0.077129	0.191919	-1.227261	0.479332	0.178849	0.442649	-0.071158	0.934913	0.223779	0.387943	-0.106215	0.410338	-0.136139	0.890001	0.732035
-0.307099	0.015393	0.167651	-1.258854	0.570386	0.255547	0.471849	-0.035714	0.806299	0.076451	0.30863	-0.28855	0.515974	-0.074147	1.034593	0.770675
-0.189434	0.164068	0.299732	-1.251962	0.465973	0.08198	0.384601	-0.183078	0.899565	0.197963	0.438639	-0.108091	0.328614	-0.239577	0.70773	0.624037
-0.254261	0.147409	0.279075	-1.266086	0.505562	0.112299	0.355473	-0.186644	0.800164	0.086789	0.366777	-0.246432	0.330293	-0.27358	0.666359	0.589793
0.049451	0.413311	0.411728	-1.185007	0.557804	0.140587	0.355473	-0.15722	0.842712	0.118418	0.367894	-0.207187	0.353855	-0.250922	0.656954	0.59464
0.051578	0.572179	0.49942	-1.172646	0.609307	0.160561	0.368043	-0.10534	0.828521	0.152317	0.394374	-0.15375	0.334658	-0.297351	0.607763	0.549907
-0.134821	0.593083	0.455035	-1.19736	0.479617	0.017676	0.2903	-0.19723	0.839359	0.210201	0.418652	-0.106475	0.238876	-0.388975	0.477479	0.47594
-0.251567	0.648248	0.36466	-1.227261	0.479332	0.055829	0.289311	-0.188991	0.796066	0.164047	0.370145	-0.150613	0.312711	-0.347646	0.596973	0.500326
-0.377697	0.622468	0.257513	-1.301283	0.54389	0.118194	0.295609	-0.147713	0.810256	0.167991	0.350869	-0.133282	0.375761	-0.278599	0.676982	0.565277
-0.674504	0.547736	0.167651	-1.320556	0.465973	0.027645	0.24903	-0.212476	0.754393	0.130705	0.355195	-0.14396	0.322069	-0.352506	0.669499	0.52551
-0.375334	0.939342	0.366455	-1.193793	0.467123	0.10452	0.307831	-0.141875	0.696969	0.0668	0.298439	-0.224403	0.424389	-0.25658	0.865191	0.604588
-0.316061	1.032191	0.344832	-1.183225	0.505562	0.164693	0.33064	-0.106544	0.750196	0.142309	0.345261	-0.148919	0.52224	-0.164656	0.945269	0.680859
-0.256491	1.206416	0.390105	-1.116117	0.440043	0.124346	0.306829	-0.140725	0.811002	0.148441	0.350221	-0.151989	0.470259	-0.205477	0.840563	0.66677
-0.198084	1.338925	0.412806	-1.07011	0.466505	0.180955	0.363757	-0.07705	0.875257	0.258136	0.411471	-0.073264	0.548014	-0.170239	0.879243	0.727202
-0.137605	1.402991	0.413949	-1.047082	0.494116	0.246478	0.423907	-0.022399	0.928751	0.313924	0.46786	0.019843	0.651642	-0.033549	0.979508	0.84002
-0.194691	1.541281	0.498422	-0.993842	0.480249	0.199423	0.430134	-0.021448	0.999971	0.407919	0.532709	0.083035	0.638928	-0.059593	0.897944	0.848959
0.0541779999999999	1.763581	0.540171	-0.927842	0.662856	0.39993	0.566478	0.167093	1.014241	0.401829	0.507271	0.100486	0.900835	0.064406	1.132385	0.948886
-0.014169	1.411673	0.544952	-1.07011	0.833161	0.235563	0.750501	0.124248	1.024532	0.407868	0.458815	0.218249	1.164851	0.160835	1.256179	1.026412
-0.00829099999999999	0.784481	0.473284	-1.334669	1.377477	0.183082	1.065385	0.196829	1.218496	0.056595	0.367522	0.099131	1.447678	-0.044905	1.245528	0.731536
-0.012682	0.356328	0.563657	-1.778194	1.604383	0.379263	1.249904	0.297947	1.316201	-0.050452	0.474655	0.013482	1.404942	-0.158883	1.144909	0.682229
-0.070592	0.403434	0.518385	-2.049527	1.457708	0.371399	1.162849	0.237335	1.323616	0.044715	0.555511	0.060884	1.311572	-0.114619	1.10298	0.76099
-0.015181	0.782306	0.543869	-1.999525	1.472575	0.500071	1.255372	0.325962	1.216028	0.069088	0.437992	0.027876	1.211284	-0.168603	0.979234	0.751643
-0.0678609999999999	0.966153	0.363118	-1.930413	1.660924	0.747872	1.536447	0.552357	1.103515	0.14409	0.333895	0.132281	1.421621	0.05305	1.378535	1.060414
-0.259555	1.006279	0.235971	-1.904622	1.780914	0.833326	1.638189	0.610879	0.86711	-0.034522	0.220035	0.078356	1.494491	0.183711	1.690537	1.429674
-0.248413	1.241896	0.12161	-1.790088	1.755488	0.823306	1.647938	0.621744	0.788669	0.054663	0.19971	0.100486	1.371229	0.076746	1.80382	1.753764
-0.198084	1.428921	0.081603	-1.673938	1.904691	1.015128	1.698602	0.77857	0.942298	0.486387	0.248999	0.130601	1.341317	0.045119	2.180513	2.240994
-0.012682	1.587938	0.057635	-1.59029	1.86301	0.899063	1.646809	0.725163	0.913801	0.464557	0.306713	0.163999	1.348947	0.081114	2.680989	2.783546
-0.258257	1.562242	-0.07191	-1.593793	1.796021	0.831135	1.581265	0.617863	0.75981	0.2498	0.36264	0.240399	1.488763	0.188933	3.446628	3.280447
-0.563035	1.442178	-0.265655	-1.640849	1.647294	0.748925	1.374596	0.506068	0.67474	0.197963	0.473509	0.38691	1.423392	0.197756	3.709483	3.448167
-0.623858	1.572774	-0.307238	-1.598929	1.364397	0.66053	1.055843	0.379162	0.649852	0.460069	0.355786	0.173439	1.32828	0.307764	3.986241	3.401782
-0.442992	1.772701	-0.307238	-1.495846	1.08744	0.550774	0.817724	0.27165	0.931066	1.045445	0.360335	0.157657	1.170637	0.280703	4.141461	3.338581
-0.199076	2.07911	-0.154484	-1.369618	0.862134	0.479156	0.679298	0.228767	1.522864	1.972858	0.484508	0.315069	0.864348	0.097091	3.875107	3.251003
-0.198084	2.200436	-0.15649	-1.306529	0.782792	0.585088	0.639567	0.328912	2.088001	2.834941	0.658685	0.490997	0.908207	0.291028	4.243184	3.509201
-0.134821	2.291852	-0.113823	-1.176177	0.703655	0.681287	0.656306	0.506068	2.560997	3.546092	0.774749	0.595233	0.803758	0.362619	4.253847	3.720209
0.047797	2.208508	-0.070185	-1.057716	0.546785	0.640335	0.646874	0.613034	2.858456	4.013494	0.889275	0.77895	0.755852	0.469525	4.257049	4.006961
-0.194691	2.133483	-0.157401	-0.972583	0.493382	0.726052	0.659419	0.724021	2.771571	3.796301	0.860996	0.754974	0.724874	0.517606	4.314873	4.188908
0.049451	2.163915	-0.070185	-0.86588	0.337813	0.66053	0.563363	0.646795	2.396673	3.080667	0.839424	0.738577	0.816343	0.615112	4.423869	4.241109
-0.256491	1.810821	-0.178724	-0.874717	0.364385	0.763338	0.517498	0.634708	1.999506	2.379791	0.76137	0.670989	0.924749	0.761309	4.422338	4.158715
0.0541779999999999	1.857384	-0.028254	-0.715669	0.454692	0.857855	0.52376	0.681714	1.68402	1.899378	0.66933	0.598471	0.785198	0.595504	3.931006	3.739926
0.36563	1.956764	0.166119	-0.553801	0.533207	1.025193	0.563363	0.736039	1.527104	1.619988	0.651042	0.619511	0.788817	0.617832	3.633189	3.392052
0.36563	1.852249	0.231662	-0.515847	0.480598	0.967124	0.482163	0.640737	1.294781	1.297512	0.56015	0.523434	0.629696	0.495216	3.045061	2.907788
0.373017	1.721892	0.186478	-0.5225	0.493739	0.971535	0.378312	0.561322	1.132714	1.104801	0.541067	0.542441	0.576917	0.427004	2.636476	2.470555
0.239496	1.605615	0.145292	-0.553801	0.466505	0.935989	0.264549	0.442702	0.960589	0.900847	0.478437	0.487864	0.445914	0.3131	2.106873	2.015245
0.0647870000000002	1.394388	0.03412	-0.617694	0.388818	0.923668	0.16959	0.306386	0.757694	0.637773	0.360718	0.430122	0.38605	0.2506	1.719945	1.665527
0.242607	1.185225	-0.029777	-0.720559	0.689267	0.74042	0.093799	0.086911	0.449406	-0.057634	0.244529	0.2339	0.474902	0.123274	1.296237	1.406683
0.120057	0.475913	-0.268595	-1.062233	1.031303	0.752717	0.211328	0.033861	0.185524	-0.61146	0.058155	0.053036	0.455094	-0.104181	0.888016	1.124795
-0.248413	-0.030099	-0.524996	-1.307519	0.911828	0.812396	0.279104	0.045111	0.080896	-0.560864	0.0450389999999999	0.064085	0.478728	-0.104181	0.675314	1.053911
-0.616106	-0.247618	-0.82423	-1.433766	0.584108	0.843405	0.217037	0.102907	0.070262	-0.392667	0.085512	0.106923	0.424088	-0.042889	0.644984	1.126672
-0.618726	-0.038283	-0.822825	-1.330333	0.311006	0.775584	0.0913	0.092254	0.032981	-0.293467	0.111247	0.141724	0.42231	0.033075	0.847171	1.25484
-0.434312	0.213771	-0.738814	-1.19789	0.142908	0.771295	0.00403199999999998	0.098283	0.025509	-0.22128	0.099182	0.159151	0.32629	0.00234099999999998	0.816738	1.286956
-0.375334	0.455009	-0.588379	-1.072754	-0.023778	0.736692	-0.0892600000000001	0.035345	-0.037203	-0.244941	0.06087	0.114766	0.275754	0.027686	0.93856	1.362771
-0.377697	0.475913	-0.588379	-1.026776	-0.113261	0.66908	-0.176076	-0.004858	-0.054172	-0.191384	0.112325	0.122659	0.201631	-0.065439	0.87802	1.305306
-0.557418	0.593083	-0.482642	-0.987371	-0.113584	0.722289	-0.200489	-0.0344	-0.101735	-0.253554	0.106987	0.081637	0.169287	-0.090221	0.887738	1.2342
-0.677414	0.513519	-0.504508	-1.020899	-0.253975	0.53208	-0.333776	-0.213405	-0.074223	-0.216206	0.160683	0.135485	-0.0586329999999999	-0.313586	0.504053	1.008115
-0.677414	0.50515	-0.418305	-0.987371	-0.163834	0.589428	-0.35526	-0.214792	-0.043538	-0.232492	0.142526	0.059381	0.0579809999999999	-0.240742	0.594888	0.971845
-0.613033	0.580697	-0.355657	-0.958362	-0.20251	0.558574	-0.380477	-0.288623	-0.029745	-0.248695	0.162171	0.086216	0.00393700000000008	-0.313586	0.383744	0.84002
-1.088708	0.321835	-0.484444	-1.087823	-0.113888	0.595159	-0.38232	-0.255565	-0.087983	-0.287189	0.137551	-0.00235	0.0329320000000001	-0.307486	0.354313	0.770092
-0.855071	0.442546	-0.333792	-1.031402	-0.228577	0.458495	-0.452245	-0.380962	0.012889	-0.165114	0.182033	0.067418	0.006247	-0.351516	0.274786	0.704704
-1.088708	0.438856	-0.420592	-1.075342	-0.177719	0.527812	-0.412805	-0.301417	0.072576	-0.03256	0.293702	0.219873	-0.035344	-0.394047	0.074882	0.629937
-1.034709	0.480337	-0.355115	-1.056369	-0.165136	0.52363	-0.42088	-0.269834	-0.00844699999999998	-0.120229	0.177045	0.034052	0.154977	-0.176449	0.383936	0.776641
-0.918765	0.563735	-0.311261	-1.014301	-0.188477	0.538641	-0.423354	-0.232493	0.097105	0.032587	0.240855	0.165918	0.106443	-0.226858	0.293987	0.744995
-0.618726	0.803321	-0.202511	-0.955751	-0.139374	0.580835	-0.380477	-0.166562	0.105407	0.128417	0.258831	0.208467	0.180134	-0.159935	0.333853	0.778849
-0.735812	0.71085	-0.247232	-0.987371	-0.151957	0.597283	-0.372388	-0.155981	0.126725	0.100657	0.231342	0.179828	0.198018	-0.098847	0.353771	0.785547
-0.618726	0.672833	-0.181149	-0.955751	-0.08629	0.605997	-0.321882	-0.112407	0.211125	0.18859	0.284737	0.280117	0.1859	-0.153792	0.294642	0.699934
-0.738559	0.61012	-0.247232	-0.9663	0.039736	0.74463	-0.201429	0.018724	0.265859	0.291704	0.28746	0.280218	0.231192	-0.091896	0.375149	0.751893
-0.742701	0.635003	-0.201744	-0.949027	-0.049321	0.652542	-0.23112	-0.06289	0.294657	0.275964	0.30229	0.358147	0.180134	-0.115483	0.194169	0.751643
-0.857941	0.521963	-0.333208	-0.978794	-0.062249	0.66691	-0.206724	-0.081777	0.256078	0.25198	0.295137	0.332615	0.308447	-0.00297500000000001	0.394179	0.801445
-0.49844	0.664388	-0.245177	-0.911545	-0.073748	0.675716	-0.181335	-0.064035	0.277491	0.268194	0.304028	0.38854	0.237924	-0.06494	0.233966	0.679374
-0.547711	0.585973	-0.248301	-0.9248	0.028397	0.811085	-0.110849	0.043579	0.228234	0.228011	0.254429	0.332615	0.258021	-0.00560400000000003	0.214461	0.641177
-0.379598	0.568084	-0.178724	-0.892255	-0.024382	0.759024	-0.145399	-0.025084	0.196187	0.221906	0.235184	0.310318	0.243767	-0.008214	0.185121	0.575982
-0.616106	0.351036	-0.397702	-0.9663	-0.074845	0.736692	-0.159786	-0.047529	0.245386	0.345805	0.315509	0.441297	0.239649	0.00234099999999998	0.104703	0.542065
-0.561621	0.359335	-0.329389	-0.998907	-0.037018	0.775584	-0.145399	-0.033363	0.287214	0.367736	0.340316	0.491159	0.223626	0.008381	0.10516	0.513087
-0.439167	0.217869	-0.353126	-1.018152	-0.061564	0.741099	-0.119981	-0.026245	0.294657	0.397861	0.344156	0.455718	0.319365	0.073132	0.235126	0.553561
-0.256491	0.434141	-0.223067	-0.913459	0.042608	0.856801	-0.039236	0.101871	0.365471	0.486387	0.380591	0.471687	0.344057	0.120034	0.277587	0.563173
-0.49844	0.255179	-0.309834	-0.970173	0.028397	0.823306	-0.00222100000000003	0.121834	0.450459	0.617441	0.493933	0.600086	0.38605	0.199611	0.263938	0.634335
-0.740856	0.131038	-0.330274	-0.95092	0.065943	0.855689	0.042101	0.171662	0.566945	0.760824	0.549311	0.666059	0.38605	0.185524	0.283863	0.632129
-0.620893	0.238663	-0.309029	-0.875936	0.117542	0.911359	0.121243	0.233531	0.640532	0.821472	0.593653	0.704734	0.407876	0.208312	0.293987	0.641177
-0.740856	0.238663	-0.309834	-0.88845	0.131231	0.932468	0.147843	0.249072	0.65048	0.799099	0.544872	0.663076	0.413673	0.25402	0.324921	0.666196
-0.561621	0.317563	-0.266481	-0.840291	0.182581	0.971535	0.163316	0.257391	0.700301	0.823443	0.572616	0.717941	0.363137	0.211809	0.285225	0.610076
-0.671147	0.39752	-0.269703	-0.81787	0.118223	0.888986	0.154112	0.214488	0.814338	0.969877	0.651449	0.84379	0.335431	0.208312	0.164573	0.54452
-0.857941	0.313394	-0.331862	-0.909615	0.13201	0.881229	0.13238	0.170531	0.647145	0.752486	0.509945	0.65187	0.428025	0.307764	0.265404	0.549264
-1.092258	0.251337	-0.440833	-0.974871	0.117872	0.872312	0.113033	0.131277	0.590778	0.695877	0.465638	0.601729	0.41319	0.309854	0.154439	0.474835
-1.21858	0.147409	-0.524236	-1.041162	0.04033	0.787841	0.056586	0.069618	0.637253	0.750646	0.503295	0.675701	0.306748	0.177512	0.036523	0.370118
-1.273772	0.106073	-0.546861	-1.039242	0.066607	0.833326	0.035827	0.098058	0.608165	0.766661	0.481137	0.688833	0.348076	0.2506	0.035662	0.387639
-1.039933	0.24286	-0.503828	-0.980732	0.053985	0.847784	0.051255	0.146723	0.587497	0.778951	0.435799	0.612957	0.400504	0.270178	0.124543	0.423286
-1.100279	0.205404	-0.481922	-0.957686	0.092229	0.917965	0.0913	0.206168	0.626445	0.835664	0.441889	0.649938	0.335431	0.185524	0.094975	0.398793
-0.922846	0.275938	-0.437988	-0.949027	0.054759	0.869009	0.0850440000000001	0.202687	0.579999	0.815332	0.383868	0.550345	0.303401	0.163458	0.086351	0.412558
-1.152922	0.151928	-0.526334	-0.989334	0.091577	0.882434	0.104826	0.209721	0.612366	0.817469	0.368434	0.543842	0.306748	0.154701	0.204924	0.479529
-0.922846	0.296732	-0.394774	-0.913459	0.053985	0.833326	0.090333	0.195454	0.640532	0.821472	0.381678	0.569527	0.254695	0.10733	0.186287	0.461983
-1.037542	0.172506	-0.482642	-0.991281	0.118595	0.862251	0.09854	0.184745	0.537814	0.667625	0.281927	0.375746	0.312711	0.169675	0.236396	0.545016
-0.799542	0.363316	-0.287765	-0.911545	0.015802	0.69786	0.026676	0.074332	0.618945	0.748465	0.332035	0.462251	0.325307	0.17488	0.275955	0.538072
-0.984403	0.209684	-0.394774	-0.927842	0.105587	0.806631	0.035827	0.114656	0.64383	0.79712	0.377797	0.499039	0.297539	0.182833	0.224746	0.562608
-0.863868	0.338431	-0.264768	-0.90475	0.105973	0.823306	0.020408	0.095675	0.672048	0.811302	0.398219	0.564822	0.355548	0.23381	0.285225	0.594084
-1.340098	-0.017634	-0.523418	-1.032507	0.118987	0.864482	-0.011374	0.076705	0.594077	0.730314	0.383868	0.53915	0.142408	0.041705	-0.0336920000000001	0.461481
-0.925131	0.143792	-0.34963	-0.952796	0.156543	0.884596	-0.021459	0.099255	0.505534	0.637243	0.334264	0.454403	0.134056	0.014552	0.018203	0.43968
-0.863868	0.060686	-0.415058	-0.97398	0.157663	0.934724	-0.026772	0.106354	0.55847	0.714028	0.366777	0.534587	0.149895	0.061754	-0.032882	0.455053
-0.684522	0.01577	-0.391944	-0.967117	0.093782	0.856801	-0.0729250000000001	0.070804	0.498963	0.659704	0.345863	0.518176	0.146591	0.084521	0.00763800000000001	0.441781
-0.502051	0.097779	-0.286919	-0.940323	0.079964	0.823306	-0.091172	0.023409	0.379439	0.526878	0.263315	0.40927	0.11832	0.023395	-0.02102	0.406268
-0.685156	-0.012957	-0.391944	-1.004458	0.079964	0.835539	-0.083957	0.042354	0.33756	0.498831	0.21053	0.383699	0.129247	0.062761	0.08965	0.433453
-1.103414	-0.357606	-0.650715	-1.153002	0.092229	0.872312	-0.069518	0.058965	0.271098	0.470818	0.174914	0.391702	0.10306	0.050387	0.016836	0.401416
-0.922846	-0.28007	-0.543629	-1.107087	0.015071	0.806631	-0.100271	0.018724	0.238936	0.450556	0.108045	0.332615	0.051323	0.00576299999999999	-0.00283300000000003	0.379146
-1.162102	-0.455439	-0.671729	-1.190161	-0.010495	0.779959	-0.116571	-0.010843	0.203632	0.430327	0.081756	0.310318	0.083986	0.028529	0.10744	0.39722
-1.162102	-0.463341	-0.626759	-1.179612	-0.087427	0.710068	-0.169829	-0.088789	0.186531	0.392247	0.069685	0.321461	0.02155	-0.043804	0.028861	0.350688
-1.104761	-0.568727	-0.647735	-1.218506	-0.08669	0.714483	-0.194234	-0.10534	0.148079	0.364302	0.035271	0.256134	0.0497	-0.024764	0.046961	0.354816
-1.45908	-0.763	-0.841176	-1.295895	-0.048982	0.736692	-0.203289	-0.091104	0.117194	0.356602	0.038149	0.232287	-0.065354	-0.148623	-0.112405	0.256304
-1.517193	-0.755166	-0.820277	-1.295895	-0.100348	0.66908	-0.233928	-0.131162	0.172647	0.422577	0.09384	0.286396	-0.034448	-0.153792	-0.091791	0.241058
-1.865217	-0.920304	-0.907341	-1.360697	-0.138736	0.611625	-0.282591	-0.192296	0.249647	0.498831	0.141463	0.315069	0.046505	-0.094436	0.048481	0.277153
-1.691835	-0.843983	-0.822036	-1.31691	-0.189262	0.519922	-0.30507	-0.217098	0.302146	0.551058	0.202335	0.354953	-0.018733	-0.19035	-0.032882	0.198848
-1.341266	-0.673767	-0.647735	-1.241412	-0.112552	0.615956	-0.256425	-0.164242	0.414925	0.682416	0.266215	0.425353	0.052962	-0.137299	0.036523	0.189848
-1.456042	-0.864142	-0.737326	-1.31691	-0.048242	0.630324	-0.249238	-0.124208	0.41815	0.665939	0.26225	0.417285	-0.059361	-0.248405	-0.100932	0.070519
-1.223012	-0.847191	-0.625665	-1.280175	-0.099232	0.567351	-0.301357	-0.15722	0.357968	0.621367	0.21766	0.358147	-0.025162	-0.237072	-0.070807	0.050528
-1.21858	-0.84806	-0.652404	-1.30457	-0.126167	0.570756	-0.289782	-0.177137	0.367789	0.661483	0.223094	0.399951	-0.104353	-0.321329	-0.160952	0.0146510000000001
-1.103414	-0.87995	-0.54267	-1.264302	-0.175975	0.552992	-0.302296	-0.186644	0.368698	0.722376	0.244046	0.489306	-0.026727	-0.239577	-0.109929	0.079511
-1.044436	-1.036604	-0.607737	-1.274842	-0.126483	0.638183	-0.288867	-0.139441	0.225026	0.537022	0.092787	0.260909	0.0546180000000001	-0.171238	-0.00379499999999999	0.16498
-0.805691	-1.032219	-0.45527	-1.16206	-0.126779	0.648285	-0.267292	-0.095704	0.228234	0.558876	0.09596	0.307102	0.030909	-0.200511	0.039614	0.15262
-1.340098	-1.529183	-0.692722	-1.320556	-0.074845	0.712265	-0.233928	-0.040383	0.287214	0.643375	0.093154	0.327931	0.048094	-0.167693	0.08777	0.218917
-1.045039	-1.457461	-0.475199	-1.209707	-0.07517	0.695673	-0.242046	-0.0344	0.280714	0.611222	0.097029	0.307102	0.076344	-0.123373	0.106071	0.265304
-1.044436	-1.501589	-0.457334	-1.156673	-0.112917	0.618154	-0.264539	-0.086462	0.298942	0.595588	0.138307	0.305627	-0.013737	-0.235538	0.035662	0.236222
-0.684522	-1.283761	-0.198065	-1.039924	-0.061917	0.642507	-0.225808	-0.080504	0.326819	0.585418	0.154627	0.243451	-0.00123000000000006	-0.271958	0.065634	0.247312
-0.684522	-1.248031	-0.200027	-1.06294	0.002114	0.642507	-0.217685	-0.1017	0.33756	0.51285	0.141463	0.163999	0.011285	-0.274584	0.10516	0.278499
-0.865561	-1.10033	-0.220342	-1.077163	0.078606	0.703608	-0.204206	-0.116871	0.274285	0.432704	0.128304	0.04827	-0.0283709999999999	-0.36436	0.0353	0.246859
-0.801679	-0.743263	-0.180401	-1.044954	0.027694	0.652542	-0.256425	-0.198275	0.361224	0.500423	0.202774	0.132281	-0.066992	-0.426761	0.036523	0.167739
-0.745503	-0.584184	-0.153388	-1.045316	-0.011155	0.607379	-0.304153	-0.269834	0.35473	0.492587	0.199502	0.083035	-0.070219	-0.429275	0.00763800000000001	0.134614
-0.801679	-0.516645	-0.244371	-1.084105	-0.012227	0.625725	-0.323066	-0.281084	0.35473	0.474684	0.21766	0.11634	-0.049539	-0.388852	-0.0234989999999999	0.122842
-0.864942	-0.486626	-0.282927	-1.068341	0.001481	0.687139	-0.313168	-0.223953	0.277491	0.398482	0.184169	0.037168	-0.10754	-0.417995	-0.05122	0.070519
-0.684522	-0.471173	-0.306251	-1.112553	-0.024382	0.701499	-0.329355	-0.255565	0.235738	0.304689	0.122257	-0.056005	-0.160273	-0.450458	-0.108011	0.044524
-0.742701	-0.49168	-0.306251	-1.135527	-0.165136	0.552215	-0.423591	-0.372711	0.151273	0.250418	0.076787	-0.103359	-0.237719	-0.506861	-0.26762	-0.031335
-0.740856	-0.447467	-0.393891	-1.144286	-0.253302	0.53208	-0.47461	-0.419847	0.19295	0.344126	0.13259	0.010277	-0.273281	-0.520605	-0.257026	-0.0333429999999999
-1.04188	-0.596963	-0.499532	-1.239615	-0.292195	0.542118	-0.507738	-0.455834	0.1406	0.292196	0.097029	-0.007135	-0.231308	-0.474291	-0.249509	-0.0162950000000001
-0.922846	-0.589164	-0.54267	-1.297707	-0.254566	0.605289	-0.523829	-0.426651	0.073504	0.228011	0.00023200000000001	-0.112695	-0.376604	-0.565535	-0.415625	-0.102054
-1.336444	-0.783297	-0.735603	-1.378513	-0.432178	0.405653	-0.601491	-0.535023	0.06383	0.32009	0.011177	-0.071851	-0.398142	-0.591636	-0.392748	-0.151756
-1.340098	-0.963937	-0.84019	-1.427677	-0.49543	0.393508	-0.608627	-0.53054	-0.026578	0.264336	-0.076602	-0.175778	-0.296446	-0.479349	-0.248149	-0.0910960000000001
-1.280377	-0.984131	-0.797405	-1.406661	-0.533949	0.403566	-0.601491	-0.524577	-0.086019	0.216383	-0.120729	-0.244819	-0.345847	-0.509345	-0.287074	-0.136887
-1.341993	-1.075446	-0.83804	-1.418936	-0.583402	0.342901	-0.615757	-0.528282	-0.054172	0.278262	-0.036281	-0.136447	-0.337927	-0.513064	-0.249509	-0.15075
-1.104312	-1.012059	-0.667557	-1.33995	-0.710438	0.217169	-0.686101	-0.632633	-0.044616	0.289915	-0.045048	-0.137873	-0.384125	-0.52428	-0.348102	-0.203406
-1.460346	-1.36993	-0.856437	-1.492446	-0.69887	0.21919	-0.675293	-0.614569	-0.064797	0.254268	-0.121804	-0.28721	-0.305647	-0.493109	-0.209159	-0.187551
-1.460346	-1.437504	-0.856437	-1.469689	-0.711139	0.196885	-0.674442	-0.591582	0.06383	0.430327	-0.056447	-0.147457	-0.328784	-0.529347	-0.288532	-0.275779
-1.401387	-1.477384	-0.834368	-1.48021	-0.723783	0.196885	-0.666446	-0.543867	0.098998	0.537022	-0.078725	-0.229194	-0.27638	-0.422946	-0.177246	-0.222247
-1.456042	-1.477782	-0.841176	-1.424086	-0.736221	0.186795	-0.634431	-0.502126	0.204781	0.678542	-0.01536	-0.109571	-0.271706	-0.404211	-0.248149	-0.227236
-1.341266	-1.513444	-0.796337	-1.392605	-0.660491	0.324452	-0.572034	-0.401936	0.212376	0.667025	0.002752	-0.08742	-0.140054	-0.284893	-0.05122	-0.113007
-1.513592	-1.583919	-0.864717	-1.420432	-0.68583	0.308175	-0.580928	-0.435578	0.250886	0.715631	0.114938	0.078562	-0.257728	-0.412968	-0.239132	-0.174635
-1.338489	-1.469716	-0.756558	-1.31691	-0.659989	0.31444	-0.572034	-0.399695	0.317266	0.820707	0.163607	0.135485	-0.318014	-0.385357	-0.337842	-0.139802
-1.517193	-1.485784	-0.818284	-1.308228	-0.546677	0.474874	-0.488022	-0.24953	0.404166	0.927592	0.197347	0.205244	-0.260908	-0.271042	-0.228662	0.032575
-1.578133	-1.394601	-0.792778	-1.303048	-0.420451	0.595159	-0.426238	-0.125905	0.35473	0.878727	0.219818	0.2228	-0.218895	-0.263314	-0.19085	0.111795
-1.575023	-1.299399	-0.820277	-1.257006	-0.432981	0.597283	-0.449529	-0.142537	0.297906	0.827657	0.239601	0.239243	-0.274328	-0.299719	-0.269988	0.120761
-1.519053	-1.366942	-0.816053	-1.253753	-0.445736	0.568627	-0.512137	-0.184735	0.252853	0.78121	0.223094	0.214969	-0.083615	-0.087555	-0.063514	0.262646
-1.746845	-1.394502	-0.842103	-1.278003	-0.508737	0.50346	-0.543398	-0.220178	0.33004	0.854322	0.255521	0.280218	-0.133496	-0.146009	-0.112405	0.225138
-1.278613	-1.22017	-0.648788	-1.140602	-0.46957	0.55523	-0.562237	-0.198275	0.312877	0.864553	0.240144	0.259353	-0.046908	-0.029869	0.068117	0.297273
-1.860028	-1.536663	-0.886424	-1.228497	-0.496247	0.50346	-0.588946	-0.180256	0.467675	1.121368	0.273688	0.324686	-0.012038	0.081114	0.055416	0.35421
-1.456042	-1.371091	-0.713696	-1.092812	-0.508737	0.517765	-0.580059	-0.10857	0.594077	1.342825	0.303388	0.34559	-0.036039	0.074193	0.118126	0.350688
-1.2205	-1.390881	-0.670775	-1.044954	-0.483246	0.560736	-0.549698	-0.02235	0.667963	1.458381	0.310085	0.347804	-0.051219	0.059121	-0.013212	0.34787
-1.103414	-1.311522	-0.583697	-0.977723	-0.59675	0.438438	-0.58808	-0.079095	0.704474	1.508189	0.313331	0.335829	0.0922010000000001	0.177512	0.175762	0.43968
-1.391234	-1.497442	-0.736494	-1.016235	-0.583725	0.469209	-0.563126	-0.026093	0.811002	1.640819	0.388848	0.390142	0.146591	0.195166	0.367489	0.507324
-1.280377	-1.509392	-0.711654	-1.021939	-0.495995	0.546404	-0.51756	0.068657	0.903666	1.738517	0.429712	0.441297	0.182588	0.260268	0.387293	0.529648
-1.100279	-1.418608	-0.584754	-0.925952	-0.431871	0.620374	-0.46927	0.132567	0.964744	1.824084	0.4911	0.510224	0.258021	0.293658	0.50648	0.556202
-0.744092	-1.160401	-0.433078	-0.822859	-0.406602	0.644702	-0.415525	0.191965	1.018374	1.872091	0.508823	0.516789	0.330293	0.387211	0.616949	0.612214
-0.976878	-1.271505	-0.545364	-0.859518	-0.380662	0.663559	-0.367066	0.196656	1.093939	1.997815	0.576454	0.619511	0.303401	0.398698	0.577015	0.589793
-0.440906	-0.96443	-0.241586	-0.735068	-0.228257	0.811085	-0.288867	0.334895	1.169674	2.058765	0.595875	0.616224	0.301753	0.370429	0.557073	0.526887
-0.677414	-0.987758	-0.37437	-0.798733	-0.253302	0.760042	-0.28076	0.305057	1.226986	2.073472	0.617545	0.674292	0.251437	0.325492	0.426954	0.43968
-0.439167	-0.763355	-0.199077	-0.733134	-0.227916	0.788968	-0.287013	0.277613	1.201686	2.052419	0.630878	0.70006	0.268939	0.404039	0.425472	0.425833
-0.492999	-0.761181	-0.246608	-0.746399	-0.229156	0.765527	-0.290691	0.27658	1.187353	2.023015	0.61032	0.674292	0.2919	0.446161	0.333853	0.405307
-0.379598	-0.629835	-0.221311	-0.695387	-0.139664	0.946981	-0.219532	0.387558	1.240668	2.073626	0.631622	0.801122	0.303401	0.492534	0.44681	0.390278
-0.738559	-0.826551	-0.417583	-0.784167	-0.202844	0.922477	-0.242046	0.373136	1.157954	2.029392	0.630467	0.812317	0.402715	0.532447	0.376526	0.323566
-0.803364	-1.012486	-0.261742	-0.918229	-0.062249	0.927078	-0.187033	0.348021	1.018374	1.7031	0.61032	0.703382	0.413673	0.450012	0.32793	0.257046
-0.862343	-1.131526	-0.308164	-1.039886	-0.074134	0.97787	-0.136294	0.319459	0.900324	1.505964	0.590895	0.677616	0.415366	0.42968	0.356704	0.296505
-0.745026	-1.00431	-0.219311	-0.991281	-0.18888	0.897667	-0.166008	0.243189	0.800164	1.377888	0.51491	0.585924	0.371635	0.42364	0.305065	0.311831
-0.677414	-0.973535	-0.311261	-0.989843	-0.227555	0.905033	-0.152595	0.238338	0.701189	1.281215	0.43081	0.47015	0.337177	0.414956	0.314516	0.33837
-0.865561	-1.124536	-0.347517	-1.066062	-0.291524	0.846927	-0.183263	0.168125	0.69036	1.285263	0.378903	0.447811	0.302768	0.420533	0.304204	0.340533
-0.918765	-1.114712	-0.331862	-1.031402	-0.292195	0.842307	-0.177967	0.141961	0.726141	1.326599	0.346945	0.423665	0.217956	0.343858	0.214112	0.32026
-0.803364	-1.060472	-0.26382	-0.968245	-0.381885	0.712265	-0.233928	0.048315	0.746866	1.427426	0.350221	0.43338	0.0720959999999999	0.193598	0.055156	0.246661
-1.158392	-1.405962	-0.460736	-1.091804	-0.394112	0.661313	-0.256425	0.058965	0.806874	1.551549	0.367522	0.471226	0.070515	0.188234	0.124947	0.244708
-1.102069	-1.402604	-0.350595	-1.028702	-0.417618	0.605287	-0.283219	0.045986	0.761968	1.514552	0.344788	0.391702	0.11341	0.199267	0.184161	0.315832
-0.976878	-1.285917	-0.289939	-0.945834	-0.379116	0.631792	-0.265997	0.075615	0.793528	1.522647	0.348031	0.358147	0.149391	0.171032	0.283863	0.324784
-1.16329	-1.473962	-0.284017	-0.997025	-0.317545	0.646918	-0.269843	0.069618	0.70702	1.423291	0.305185	0.268024	0.143354	0.132772	0.407115	0.318721
-1.2205	-1.556226	-0.353126	-1.012353	-0.266165	0.63476	-0.263608	0.069618	0.640532	1.338741	0.29128	0.2228	0.115194	0.080726	0.234071	0.286799
-1.2205	-1.552796	-0.286012	-1.003761	-0.239664	0.612757	-0.262669	0.066036	0.589982	1.266685	0.252406	0.17741	0.124805	0.045119	0.375149	0.271625
-1.100279	-1.622948	-0.309834	-1.05834	-0.266165	0.538641	-0.312253	0.018724	0.55847	1.279026	0.273141	0.218249	0.022104	-0.048291	0.164573	0.195646
-1.221978	-1.729823	-0.307238	-1.076602	-0.227555	0.593852	-0.319432	0.042354	0.551058	1.287228	0.290843	0.282428	0.00958899999999996	-0.06494	0.194622	0.182407
-1.341993	-1.87857	-0.414095	-1.136853	-0.228577	0.656885	-0.305981	0.073272	0.449406	1.192897	0.27092	0.280218	0.139017	0.075773	0.404515	0.273756
-1.342278	-1.92902	-0.431914	-1.153002	-0.279353	0.618154	-0.344627	0.027031	0.368698	1.082525	0.214858	0.23714	0.037206	-0.010804	0.275955	0.196094
-1.223012	-1.886373	-0.434181	-1.101476	-0.317856	0.603786	-0.359892	0.02471	0.355896	1.101662	0.225552	0.277007	0.156704	0.123274	0.403912	0.302493
-1.340098	-1.87857	-0.479402	-1.085208	-0.418013	0.557491	-0.374236	-0.025084	0.386981	1.099171	0.2594	0.372524	0.123159	0.09592	0.385708	0.278499
-1.278613	-1.901609	-0.266481	-1.154037	-0.075757	0.710068	-0.251985	0.068657	0.390189	0.819719	0.35243	0.254759	0.175012	0.064406	0.334406	0.235748
-1.102069	-1.729823	-0.135167	-1.145467	0.105587	0.842307	-0.194234	0.07197	0.414925	0.795357	0.517153	0.40326	0.036334	-0.084869	0.134601	0.19998
-1.044436	-1.623754	-0.135167	-1.097655	0.182581	0.936999	-0.162629	0.069618	0.484936	0.837853	0.63541	0.552432	0.297539	0.174146	0.474771	0.456828
-1.100279	-1.366675	-0.07339	-1.018908	0.27317	1.061097	-0.122844	0.107574	0.512999	0.803295	0.671629	0.650799	0.324533	0.176866	0.534751	0.564519
-0.981534	-1.072154	-0.029777	-0.922787	0.273547	1.102562	-0.146345	0.069618	0.453674	0.665939	0.593155	0.531266	0.429524	0.295515	0.564347	0.711002
-1.448233	-1.027372	-0.096106	-0.975256	0.131231	0.946981	-0.24112	-0.099389	0.41815	0.627603	0.57984	0.520102	0.400504	0.289878	0.534254	0.738063
-0.918765	-0.576021	0.143844	-0.790673	0.145468	0.973086	-0.28513	-0.111264	0.399923	0.576881	0.56505	0.55919	0.309975	0.221903	0.323874	0.701996
-0.918765	-0.332282	0.187721	-0.706514	0.143535	1.000588	-0.335624	-0.152319	0.323617	0.491116	0.513796	0.495774	0.317195	0.216213	0.413792	0.688406
-0.559748	-0.040483	0.319012	-0.611559	0.092965	1.051154	-0.403804	-0.223042	0.252853	0.430327	0.486782	0.51229	0.2269	0.193598	0.214112	0.573507
-0.976878	-0.237174	0.165446	-0.693883	0.028035	1.058804	-0.460308	-0.284046	0.106502	0.260494	0.307831	0.26585	0.210635	0.190761	0.214058	0.47691
-1.102069	-0.398163	0.059244	-0.746399	0.040023	1.066604	-0.493428	-0.311936	0.120353	0.318615	0.317707	0.327931	0.122494	0.108978	-0.00396899999999989	0.338174
-1.102069	-0.438517	0.014651	-0.754923	-0.101547	0.95263	-0.564881	-0.441606	0.081977	0.308514	0.28523	0.34559	0.075704	0.092027	0.025519	0.273458
-1.162102	-0.572913	-0.00597800000000004	-0.782153	-0.164526	0.903471	-0.602373	-0.472271	-0.00844699999999998	0.208716	0.15614	0.186295	0.158449	0.179606	0.174801	0.300315
-1.511143	-0.741324	-0.204448	-0.868452	-0.189967	0.905707	-0.602373	-0.4431	-0.042233	0.193582	0.168859	0.206837	0.0329320000000001	0.039031	0.00647500000000001	0.222503
-1.2817	-0.698394	-0.09246	-0.828419	-0.190288	0.905707	-0.579183	-0.416167	-0.101735	0.125535	0.104137	0.097297	-0.0279130000000001	-0.053616	-0.102143	0.160245
-1.278613	-0.681554	-0.07268	-0.803262	-0.216021	0.860042	-0.580059	-0.407934	-0.101735	0.121777	0.08282	0.057702	-0.012702	-0.038715	0.009259	0.182932
-1.278613	-0.64154	-0.050488	-0.813802	-0.254566	0.761171	-0.596099	-0.449845	0.006686	0.223938	0.151474	0.121241	-0.102734	-0.165126	-0.180521	0.135993
-1.331046	-0.63589	-0.052555	-0.830684	-0.152802	0.839114	-0.535371	-0.39591	0.072576	0.28319	0.209461	0.11634	-0.07338	-0.198	-0.079729	0.169798
-1.456042	-0.718418	-0.050488	-0.872581	-0.203452	0.676995	-0.580928	-0.479005	0.148079	0.33255	0.260484	0.154432	-0.02358	-0.172768	0.009259	0.232053
-1.338489	-0.690009	-0.00758300000000001	-0.838959	-0.114169	0.732371	-0.549698	-0.441606	0.221837	0.370553	0.313331	0.173439	-0.031214	-0.218127	-0.011999	0.258406
-1.223012	-0.589551	0.082543	-0.809312	-0.049937	0.790006	-0.471052	-0.39145	0.274285	0.422577	0.381678	0.202042	0.101393	-0.114619	0.14683	0.363217
-1.340098	-0.726768	0.015465	-0.876645	-0.062851	0.746767	-0.495193	-0.433362	0.326819	0.494964	0.428621	0.213164	0.073089	-0.156347	0.068117	0.32083
-1.398211	-0.783412	-0.00597800000000004	-0.912266	-0.087765	0.69786	-0.51756	-0.466305	0.271098	0.400935	0.374511	0.122659	0.112271	-0.114619	0.196905	0.383368
-1.098045	-0.615967	0.012579	-0.857949	-0.075474	0.70574	-0.518437	-0.452072	0.323617	0.494964	0.445178	0.208467	0.029597	-0.179026	0.027291	0.313959
-0.863868	-0.589551	0.104005	-0.834428	-0.048242	0.798878	-0.476428	-0.398844	0.407401	0.621367	0.489456	0.308981	0.170041	0.028529	0.236396	0.407799
-0.735812	-0.550029	0.077265	-0.832777	-0.024382	0.818876	-0.454944	-0.332958	0.408529	0.654267	0.497196	0.332615	0.234524	0.101178	0.335419	0.414293
-0.803364	-0.581266	0.060142	-0.809312	0.053629	0.973774	-0.344627	-0.139441	0.481686	0.771013	0.528205	0.418958	0.266632	0.151422	0.344035	0.432089
-0.620893	-0.352442	0.102228	-0.769564	-0.024382	0.940321	-0.346427	-0.146315	0.527044	0.870231	0.56767	0.530156	0.326365	0.258683	0.343902	0.483705
-0.500475	-0.0867920000000001	0.124587	-0.700022	0.054362	1.063413	-0.263608	0.00683500000000001	0.560528	0.982877	0.624243	0.632217	0.398722	0.32401	0.554779	0.517304
-0.319728	0.218763	0.167651	-0.651554	0.079593	1.156384	-0.170767	0.139596	0.590778	1.024987	0.617141	0.691107	0.364803	0.296308	0.515756	0.477019
-0.561621	0.189601	0.058409	-0.674781	0.103972	1.228291	-0.103052	0.208679	0.498963	0.9435	0.532709	0.552432	0.286641	0.2506	0.394179	0.45004
-0.740856	0.119495	-0.028254	-0.685368	0.078914	1.235003	-0.084897	0.245458	0.43968	0.868495	0.46786	0.462251	0.317676	0.231144	0.495815	0.445642
-0.679872	0.206983	-0.029046	-0.6601	0.014424	1.193388	-0.092115	0.215696	0.414925	0.829933	0.446285	0.447811	0.306748	0.23381	0.474771	0.427663
-0.740856	0.247963	-0.049676	-0.638916	-0.099996	1.063413	-0.159786	0.098058	0.374329	0.792488	0.431477	0.399757	0.25971	0.196912	0.474771	0.407503
-0.799542	0.285966	-0.116253	-0.647456	-0.150544	0.997514	-0.190446	0.030518	0.331192	0.720805	0.381678	0.300728	0.272	0.210602	0.433821	0.396267
-0.801679	0.2772	-0.094103	-0.672738	-0.253302	0.895733	-0.223937	-0.06289	0.320432	0.696504	0.404293	0.346983	0.230607	0.154037	0.314079	0.34936
-0.973885	0.084885	-0.226879	-0.74446	-0.240786	0.852249	-0.240187	-0.075852	0.272416	0.628713	0.390616	0.251514	0.158449	0.061156	0.244031	0.266724
-1.100279	-0.136032	-0.201744	-0.767527	-0.189967	0.878967	-0.217685	-0.056958	0.285016	0.641681	0.400438	0.240399	0.152982	0.041302	0.214112	0.231063
-1.031435	-0.279612	-0.248301	-0.815965	-0.164842	0.903471	-0.217685	-0.056958	0.348309	0.70432	0.46786	0.367845	0.066678	0.01046	0.045134	0.153213
-0.801679	-0.283326	-0.07191	-0.780122	-0.125095	0.91487	-0.206724	-0.009718	0.368698	0.754624	0.49285	0.392148	0.050601	-0.048291	0.0352560000000001	0.0888680000000002
-0.970452	-0.474795	-0.162068	-0.839059	-0.101547	0.911359	-0.181661	0.011775	0.338815	0.692621	0.490003	0.394883	0.13156	0.027686	0.174801	0.095599
-0.860366	-0.567426	-0.159038	-0.849491	-0.165411	0.828965	-0.220445	-0.055616	0.37622	0.732555	0.50274	0.428822	0.029013	-0.028878	-0.0340510000000001	0.0290080000000001
-0.973885	-0.686666	-0.225851	-0.866363	-0.127054	0.855689	-0.190687	0.009479	0.257189	0.613532	0.412578	0.262593	0.116994	0.055364	0.104702	0.095464
-0.799542	-0.587383	-0.115505	-0.813802	-0.164191	0.854515	-0.185163	0.00447400000000001	0.323617	0.665939	0.445178	0.342317	0.0973310000000001	0.030371	0.094975	0.0645629999999999
-0.855071	-0.783283	-0.225851	-0.853774	-0.203158	0.794398	-0.196084	-0.032087	0.400949	0.756874	0.485007	0.418958	0.198018	0.14283	0.263938	0.142114
-0.851755	-0.658045	-0.139596	-0.805471	-0.229156	0.736692	-0.212328	-0.074519	0.309682	0.665939	0.439097	0.29132	0.0990749999999999	0.035798	0.05506	0.0489490000000001
-0.796958	-0.811797	-0.181835	-0.832777	-0.229415	0.746767	-0.213236	-0.087403	0.288212	0.635454	0.455709	0.348882	0.108159	0.021762	0.065078	0.099947
-0.860366	-0.826551	-0.136057	-0.851529	-0.241997	0.734522	-0.205118	-0.146315	0.190905	0.428862	0.368434	0.19093	0.129846	0.019047	0.164573	0.264519
-0.618726	-0.567426	-0.050488	-0.801213	-0.279353	0.687887	-0.209558	-0.225354	0.169473	0.336391	0.358493	0.171971	0.087223	-0.044905	0.145562	0.371814
-0.973885	-0.63589	-0.203863	-0.916652	-0.216308	0.710068	-0.202362	-0.238207	0.211125	0.374404	0.424729	0.273704	0.115601	-0.011661	0.214461	0.542065
-0.557418	-0.315005	-0.00758300000000001	-0.849491	-0.279353	0.618154	-0.271722	-0.329815	0.194061	0.322448	0.404293	0.2339	0.267278	0.152048	0.465303	0.665884
-0.609511	-0.277391	-0.0954999999999999	-0.857949	-0.229156	0.652542	-0.258273	-0.280367	0.190905	0.335045	0.412112	0.221134	0.155882	0.067908	0.275955	0.58503
-0.431199	-0.101168	-0.029777	-0.870525	-0.240432	0.677972	-0.286075	-0.287656	0.211125	0.35421	0.448515	0.269127	0.192724	0.125999	0.274079	0.586994
-0.618726	-0.196821	-0.136888	-0.935322	-0.176734	0.7745	-0.294187	-0.247758	0.274285	0.440437	0.488335	0.334477	0.065476	0.022375	0.075946	0.483848
-0.561621	-0.00850200000000001	-0.09246	-0.91427	-0.138736	0.852249	-0.287944	-0.22072	0.271098	0.440437	0.50274	0.388828	0.059687	0.033075	0.0452899999999999	0.441062
-0.618726	0.00886700000000007	-0.179593	-0.958362	-0.138386	0.898025	-0.302296	-0.19723	0.340771	0.524577	0.531575	0.501158	0.153265	0.174146	0.124947	0.479217
-0.681878	0.029199	-0.200027	-0.949849	-0.228876	0.835539	-0.351805	-0.254712	0.257189	0.464557	0.48722	0.439954	0.151572	0.211	0.185121	0.488217
-0.793926	0.0354569999999998	-0.332565	-0.939691	-0.253975	0.881229	-0.32753	-0.204226	0.163179	0.374404	0.431912	0.367845	0.314349	0.378417	0.497351	0.641177
-0.616106	0.204288	-0.15825	-0.824332	-0.24112	0.966071	-0.317572	-0.151321	0.221837	0.464557	0.473941	0.494472	0.198469	0.304377	0.274786	0.605028
-0.620893	0.145777	-0.200916	-0.813802	-0.229156	0.986057	-0.29697	-0.1017	0.144904	0.406232	0.413689	0.374407	0.196797	0.287546	0.355275	0.665884
-0.561621	0.148621	-0.11289	-0.735822	-0.293048	0.957023	-0.29605	-0.128854	0.138607	0.422577	0.423629	0.393392	0.176703	0.2506	0.374237	0.713211
-0.796958	0.0265219999999999	-0.181149	-0.773934	-0.266823	0.976034	-0.295122	-0.094736	0.114053	0.422577	0.424729	0.342317	0.160783	0.208312	0.364683	0.688415
-1.092258	-0.130184	-0.181149	-0.797066	-0.317856	0.847784	-0.36615	-0.166562	0.124764	0.446689	0.486111	0.382248	0.109893	0.140077	0.323763	0.645546
-0.916055	0.01766	-0.07339	-0.773934	-0.343489	0.792191	-0.444178	-0.275802	0.121651	0.348971	0.497196	0.321461	0.225328	0.225096	0.625321	0.785547
-1.391234	-0.089762	-0.203217	-0.916652	-0.394917	0.650403	-0.569376	-0.447607	0.117194	0.222608	0.481137	0.214969	0.122461	0.097866	0.524134	0.812726
-1.100279	0.198256	-0.00681200000000004	-0.838959	-0.356295	0.66691	-0.630906	-0.559637	0.103351	0.164656	0.503865	0.203898	0.043337	-0.03741	0.454086	0.762973
-1.039933	0.285966	-0.029046	-0.872581	-0.305604	0.691363	-0.647828	-0.6118	0.034263	0.07775	0.477815	0.151226	-0.021112	-0.110127	0.373799	0.677116
-0.922846	0.368209	0.016339	-0.889193	-0.343192	0.601598	-0.700333	-0.702521	-0.080418	-0.007596	0.423629	0.046631	0.073958	-0.00628499999999999	0.48399	0.683865
-1.152922	0.224656	-0.117568	-0.975256	-0.331466	0.578741	-0.695849	-0.684633	-0.121625	-0.048925	0.355195	-0.035561	0.020418	-0.050963	0.363977	0.555512
-1.031435	0.374011	-0.051928	-0.906158	-0.317856	0.587247	-0.686101	-0.628181	-0.104824	0.040073	0.383868	0.049824	0.047152	-0.00628499999999999	0.373788	0.515065
-1.384424	0.046785	-0.333792	-1.056724	-0.228876	0.710068	-0.593466	-0.501418	-0.028466	0.204907	0.423629	0.179828	0.0329320000000001	-0.025655	0.344035	0.46802
-1.210195	0.01766	-0.289939	-1.023305	-0.241997	0.746767	-0.548824	-0.42066	-0.142941	0.153229	0.315509	0.086216	-0.101099	-0.132075	0.10516	0.342709
-1.092258	-0.0316930000000001	-0.289274	-1.000318	-0.280228	0.722289	-0.532756	-0.341213	-0.156661	0.177163	0.27587	0.075146	-0.079452	-0.109439	0.175762	0.358499
-0.799542	0.049566	-0.178724	-0.912266	-0.317856	0.779959	-0.508632	-0.317923	-0.132288	0.238968	0.307263	0.173439	-0.063698	-0.104181	0.124947	0.344897
-0.973885	-0.150343	-0.311261	-0.987791	-0.343489	0.765527	-0.53187	-0.299151	-0.095501	0.292196	0.347488	0.243679	-0.110246	-0.104181	0.065078	0.313636
-0.740856	-0.0578489999999999	-0.157401	-0.889193	-0.342875	0.825553	-0.530077	-0.300518	-0.098627	0.292196	0.373953	0.214969	0.036334	-0.00628499999999999	0.263938	0.380606
-0.728976	-0.0651710000000001	-0.139596	-0.876848	-0.343192	0.823306	-0.561341	-0.350866	-0.064797	0.313924	0.410998	0.264678	0.0614089999999999	0.04711	0.223993	0.340363
-0.862343	-0.242835	-0.200027	-0.960371	-0.279353	0.840029	-0.567569	-0.369606	-0.110401	0.239792	0.390257	0.198534	0.038059	0.024496	0.174247	0.32026
-0.912901	-0.181602	-0.161038	-0.914574	-0.305029	0.782178	-0.592574	-0.449041	-0.023394	0.331819	0.440925	0.245956	0.079667	0.055733	0.254189	0.302493
-1.04188	-0.340816	-0.200027	-1.010387	-0.202154	0.856801	-0.574695	-0.412949	-0.037203	0.279874	0.426525	0.213826	0.096494	0.09592	0.315581	0.284873
-1.037542	-0.392659	-0.245923	-1.050362	-0.229653	0.773429	-0.611264	-0.470771	0.018084	0.359798	0.476963	0.303625	0.051323	0.011019	0.165332	0.184551
-1.160468	-0.438517	-0.265655	-1.079337	-0.24112	0.743336	-0.638925	-0.488686	-0.025361	0.308514	0.44298	0.241803	0.107402	0.059121	0.206041	0.138103
-1.160468	-0.487263	-0.286919	-1.139649	-0.255076	0.732371	-0.665586	-0.526808	-0.067957	0.272071	0.423119	0.235916	0.023127	0.017141	0.10744	0.042891
-1.162102	-0.446978	-0.329389	-1.166464	-0.343489	0.671271	-0.718093	-0.580516	-0.126123	0.198648	0.370625	0.211708	-0.043687	-0.03964	-0.032882	-0.065678
-1.221978	-0.524273	-0.414095	-1.178884	-0.368508	0.728904	-0.702102	-0.546931	-0.226594	0.113012	0.249472	0.056266	-0.056154	-0.05625	-0.052535	-0.118536
-1.575023	-0.661564	-0.565616	-1.257986	-0.431871	0.716722	-0.732325	-0.573753	-0.177939	0.170888	0.281927	0.197375	-0.103436	-0.051429	-0.201763	-0.147627
-1.278613	-0.478735	-0.437127	-1.162563	-0.55914	0.644702	-0.787341	-0.657196	-0.208412	0.129311	0.233006	0.165522	-0.060339	-0.017587	-0.0932620000000001	-0.140923
-1.2817	-0.507355	-0.52254	-1.139649	-0.55914	0.724473	-0.765139	-0.628181	-0.199179	0.182391	0.258831	0.221547	-0.0728259999999999	-0.031598	-0.043794	-0.110071
-1.221978	-0.369507	-0.390879	-1.085208	-0.609983	0.683466	-0.788205	-0.669828	-0.123013	0.23416	0.29955	0.312285	-0.024786	0.024376	-0.122318	-0.066114
-1.333962	-0.452731	-0.438789	-1.121219	-0.572112	0.722289	-0.765998	-0.651235	-0.177939	0.208716	0.314418	0.273704	-0.018733	-0.00297500000000001	0.026178	-0.023749
-1.457779	-0.524273	-0.434181	-1.106223	-0.597735	0.676995	-0.78363	-0.707576	-0.167304	0.194832	0.328732	0.248242	-0.126	-0.10682	-0.102143	-0.063565
-1.867177	-0.891576	-0.671729	-1.268433	-0.55914	0.656885	-0.804146	-0.717371	-0.146006	0.214991	0.375601	0.270476	-0.00858999999999999	-0.02614	-0.0241659999999999	0.0201359999999999
-1.749109	-0.863305	-0.609469	-1.254065	-0.495995	0.654703	-0.85106	-0.719581	-0.200801	0.155788	0.331554	0.159151	-0.059361	-0.137299	-0.011999	-0.047874
-1.575023	-0.786738	-0.459155	-1.220766	-0.495995	0.625976	-0.882854	-0.758886	-0.276765	0.097876	0.341961	0.151226	-0.179944	-0.283208	-0.21123	-0.165016
-1.457779	-0.835001	-0.458274	-1.259923	-0.558863	0.5221	-0.966785	-0.851472	-0.406968	-0.063733	0.269386	0.026077	-0.12762	-0.212966	-0.091791	-0.171304
-1.695219	-1.124536	-0.561587	-1.348363	-0.609464	0.467024	-1.04344	-0.909099	-0.487107	-0.123956	0.206634	-0.06549	-0.129225	-0.257184	-0.061743	-0.245851
-1.578012	-1.240027	-0.66869	-1.38349	-0.66025	0.493462	-1.052163	-0.921608	-0.53835	-0.143963	0.186325	-0.054471	-0.150873	-0.265909	-0.061743	-0.296353
-1.69548	-1.331412	-0.687263	-1.432733	-0.723104	0.479156	-1.127808	-0.99536	-0.621131	-0.205095	0.106294	-0.112695	-0.296446	-0.387896	-0.239132	-0.410054
-1.753333	-1.458091	-0.710543	-1.429028	-0.836963	0.360887	-1.183721	-1.063498	-0.661662	-0.22251	0.062586	-0.1191	-0.333506	-0.454322	-0.288532	-0.449461
-1.636793	-1.481799	-0.708143	-1.409966	-0.899331	0.377173	-1.17506	-1.106246	-0.682696	-0.215068	0.051601	-0.101707	-0.290037	-0.455356	-0.250419	-0.423616
-1.753878	-1.635577	-0.752322	-1.406268	-0.924279	0.379263	-1.181313	-1.104099	-0.69619	-0.205095	0.016128	-0.169443	-0.288734	-0.45682	-0.159591	-0.381482
-1.811992	-1.698405	-0.773182	-1.408124	-0.987055	0.293983	-1.205712	-1.157461	-0.682696	-0.177664	0.037406	-0.169443	-0.331948	-0.543091	-0.210419	-0.375362
-1.928865	-1.913673	-0.858863	-1.441336	-0.924807	0.332478	-1.167992	-1.120754	-0.678113	-0.178817	0.066506	-0.167898	-0.209779	-0.452889	0.020028	-0.241043
-1.928332	-1.948615	-0.816053	-1.406268	-0.924475	0.281851	-1.182123	-1.16557	-0.702122	-0.192512	0.08674	-0.218196	-0.342728	-0.606717	-0.269029	-0.305212
-1.634285	-1.944868	-0.670775	-1.365485	-0.849375	0.348729	-1.17506	-1.128874	-0.694522	-0.199836	0.137265	-0.205389	-0.296446	-0.597984	-0.170103	-0.26565
-1.753333	-2.142905	-0.731442	-1.418581	-0.79965	0.354834	-1.192367	-1.17399	-0.787495	-0.287189	0.130436	-0.279397	-0.294868	-0.604204	-0.229972	-0.314064
-1.695219	-2.247624	-0.732572	-1.488657	-0.87471	0.209017	-1.29045	-1.294045	-0.769398	-0.270871	0.201274	-0.199261	-0.237719	-0.556827	-0.219612	-0.366523
-1.869822	-2.401712	-0.817198	-1.558592	-0.89952	0.182754	-1.366372	-1.369161	-0.875594	-0.385277	0.142526	-0.307598	-0.316417	-0.626585	-0.309079	-0.484725
-1.753333	-2.493977	-0.836875	-1.595338	-0.949592	0.158525	-1.420262	-1.438114	-0.947169	-0.432386	0.144668	-0.290365	-0.333506	-0.609212	-0.346944	-0.573473
-1.928332	-2.738524	-0.941968	-1.689467	-1.037152	0.071961	-1.518473	-1.541185	-1.01686	-0.480406	0.104889	-0.316869	-0.379749	-0.645337	-0.464779	-0.66468
-1.69548	-2.745917	-0.983409	-1.65645	-1.137022	0.070019	-1.534772	-1.555356	-1.013979	-0.436044	0.052323	-0.327868	-0.344295	-0.606717	-0.396204	-0.673467
-1.75399	-2.863802	-1.004101	-1.644241	-1.285473	-0.0567	-1.578366	-1.605686	-1.048203	-0.422446	0.062586	-0.254305	-0.307235	-0.576742	-0.387059	-0.630282
-1.578133	-2.863802	-0.961421	-1.576286	-1.248683	0.055966	-1.519975	-1.508934	-1.11478	-0.463215	-0.014315	-0.391995	-0.298008	-0.570554	-0.396204	-0.632299
-1.808218	-2.890886	-1.052296	-1.575652	-1.261169	0.068098	-1.459981	-1.417934	-1.070137	-0.362627	0.062341	-0.258702	-0.398094	-0.654015	-0.51475	-0.608659
-1.812389	-2.935805	-1.005355	-1.562246	-1.161835	0.138451	-1.382768	-1.30026	-1.01686	-0.294517	0.079644	-0.260536	-0.290037	-0.546681	-0.348815	-0.46299
-2.041643	-3.023468	-1.03055	-1.575652	-1.199155	0.094297	-1.382768	-1.330746	-0.934901	-0.217135	0.148368	-0.158074	-0.302423	-0.560442	-0.338751	-0.40184
-1.811162	-2.894589	-0.88081	-1.50763	-1.124017	0.13029	-1.335084	-1.291955	-0.987278	-0.28087	0.126193	-0.249527	-0.232935	-0.501836	-0.259794	-0.33382
-1.869822	-2.868073	-0.796337	-1.486799	-1.099201	0.063822	-1.350734	-1.322493	-0.878509	-0.199836	0.205239	-0.177171	-0.257728	-0.526824	-0.249509	-0.324975
-1.928865	-2.863802	-0.773182	-1.513213	-0.962296	0.140413	-1.320995	-1.30026	-0.923327	-0.31449	0.174914	-0.285631	-0.243715	-0.549246	-0.328599	-0.373299
-2.217803	-3.045745	-0.902716	-1.612436	-0.874159	0.227208	-1.281826	-1.285947	-0.803864	-0.219877	0.269386	-0.145829	-0.245336	-0.513064	-0.348102	-0.373299
-2.447229	-3.064745	-0.924582	-1.657667	-0.811565	0.253494	-1.282615	-1.298199	-0.848769	-0.277207	0.24512	-0.215064	-0.175719	-0.463053	-0.200075	-0.33382
-2.503685	-2.959105	-0.882916	-1.610556	-0.736601	0.304104	-1.260661	-1.2718	-0.76648	-0.192512	0.296883	-0.106475	-0.271706	-0.568054	-0.32749	-0.416851
-1.986695	-2.55923	-0.605766	-1.439467	-0.786325	0.283922	-1.266139	-1.294045	-0.69619	-0.106486	0.295137	-0.093899	-0.191292	-0.454322	-0.198615	-0.346781
-1.809905	-2.316963	-0.545364	-1.396745	-0.747887	0.330806	-1.225243	-1.218406	-0.688643	-0.103916	0.250111	-0.156869	-0.290037	-0.569042	-0.377775	-0.408564
-1.401256	-1.886373	-0.347517	-1.24277	-0.722836	0.395627	-1.148985	-1.114355	-0.5248	0.125535	0.380591	0.068783	-0.20974	-0.482951	-0.269988	-0.327569
-1.453871	-1.728282	-0.353126	-1.229232	-0.686225	0.399458	-1.112856	-1.036956	-0.49466	0.133103	0.338094	0.027734	-0.126	-0.352545	-0.15166	-0.224477
-1.043381	-1.346984	-0.134214	-1.106223	-0.647813	0.419905	-1.049681	-0.952543	-0.401002	0.231419	0.391686	0.076731	-0.095106	-0.321329	-0.022486	-0.167124
-1.221978	-1.330581	-0.265655	-1.141604	-0.572552	0.537918	-0.943839	-0.843846	-0.419157	0.180955	0.343055	0.010277	0.024719	-0.201663	0.156009	-0.043663
-1.045039	-1.164348	-0.175748	-1.112007	-0.546921	0.52571	-0.897061	-0.821019	-0.381344	0.167088	0.349124	0.010277	0.038822	-0.159935	0.165332	0.00932900000000003
-0.860366	-0.982148	-0.137657	-1.054382	-0.559398	0.487045	-0.873219	-0.829189	-0.35256	0.162165	0.377363	0.034052	0.00569299999999995	-0.177587	0.094919	-0.0263439999999999
-0.925131	-0.992529	-0.1332	-1.064156	-0.445236	0.625976	-0.78023	-0.740338	-0.34043	0.143161	0.404293	0.064085	-0.051219	-0.216338	0.075187	-0.0880559999999999
-0.860366	-1.010418	-0.159038	-1.089821	-0.509207	0.497143	-0.828037	-0.862348	-0.230969	0.216383	0.455709	0.156407	-0.011113	-0.159935	0.156009	-0.074569
-0.801679	-0.987758	-0.114694	-1.106223	-0.533074	0.481329	-0.854708	-0.943803	-0.294986	0.04638	0.372347	0.011859	-0.070219	-0.27719	0.00647500000000001	-0.175989
-0.740856	-1.007581	-0.114694	-1.174997	-0.470489	0.462717	-0.833429	-1.018119	-0.354076	-0.110221	0.333712	-0.071851	-0.12762	-0.366387	-0.052535	-0.217737
-1.044436	-1.212133	-0.241586	-1.34649	-0.458891	0.35683	-0.87491	-1.124968	-0.44467	-0.278517	0.253908	-0.167487	-0.170836	-0.411275	-0.21123	-0.275006
-1.2205	-1.346984	-0.329389	-1.460316	-0.444956	0.328667	-0.87859	-1.11004	-0.461375	-0.258643	0.284124	-0.137873	-0.142584	-0.419814	-0.201648	-0.281704
-1.221978	-1.267888	-0.306251	-1.439467	-0.420451	0.360887	-0.843104	-1.071629	-0.43722	-0.23123	0.29128	-0.112695	-0.183269	-0.463949	-0.220672	-0.318743
-1.280377	-1.441956	-0.41596	-1.528425	-0.533949	0.283922	-0.857311	-1.085729	-0.396331	-0.152603	0.319927	-0.052541	-0.270115	-0.507942	-0.337842	-0.384194
-1.576455	-1.663106	-0.584754	-1.581258	-0.533949	0.298122	-0.849353	-1.036524	-0.450834	-0.207561	0.236281	-0.177216	-0.211347	-0.471733	-0.229972	-0.34266
-1.459942	-1.596226	-0.476341	-1.535911	-0.572552	0.32032	-0.843104	-1.014289	-0.474981	-0.207561	0.215953	-0.241618	-0.243715	-0.519137	-0.289542	-0.373299
-1.578012	-1.827589	-0.603555	-1.584917	-0.584819	0.348729	-0.858166	-1.020278	-0.455192	-0.172493	0.232452	-0.192614	-0.262472	-0.554319	-0.288532	-0.408018
-1.69548	-1.909394	-0.666365	-1.633821	-0.647295	0.300223	-0.941305	-1.120301	-0.474981	-0.211323	0.219818	-0.208744	-0.379749	-0.683914	-0.406514	-0.49085
-1.986695	-2.181806	-0.881893	-1.769366	-0.736221	0.213051	-1.012633	-1.240966	-0.512699	-0.234991	0.233006	-0.208744	-0.328784	-0.640304	-0.377775	-0.497633
-1.986695	-2.181806	-0.83804	-1.793702	-0.786538	0.184764	-1.075037	-1.310226	-0.509631	-0.227451	0.217054	-0.213296	-0.347025	-0.668625	-0.417397	-0.502318
-2.331527	-2.405738	-1.031529	-1.892216	-0.836106	0.178849	-1.14193	-1.340395	-0.563942	-0.262389	0.178119	-0.290365	-0.304044	-0.640304	-0.358271	-0.477966
-2.101518	-2.424952	-0.946407	-1.85942	-0.911704	0.162616	-1.187548	-1.350579	-0.464441	-0.071419	0.187412	-0.26213	-0.368969	-0.686397	-0.415625	-0.514543
-2.044245	-2.543949	-0.986938	-1.897625	-1.011761	0.094039	-1.233923	-1.34252	-0.30691	0.190143	0.231342	-0.202348	-0.387324	-0.70978	-0.412072	-0.535213
-1.812353	-2.428567	-0.899232	-1.831922	-1.061261	0.126439	-1.201637	-1.242634	-0.177939	0.402348	0.239062	-0.218196	-0.381297	-0.713729	-0.484167	-0.534197
-2.217803	-2.635779	-1.114485	-1.918293	-1.198694	0.00954	-1.265339	-1.308123	-0.091081	0.561212	0.276524	-0.185138	-0.422724	-0.734647	-0.472093	-0.520498
-2.158517	-2.536214	-1.051298	-1.85942	-1.248173	-0.042664	-1.280229	-1.287741	-0.199179	0.440437	0.172073	-0.379578	-0.382828	-0.729824	-0.44397	-0.477191
-2.15688	-2.666075	-1.157857	-1.902528	-1.273313	-0.048569	-1.296712	-1.273673	-0.174844	0.516742	0.209913	-0.298159	-0.335048	-0.666417	-0.385804	-0.414092
-2.044245	-2.55162	-1.091645	-1.863019	-1.285473	-0.032594	-1.295111	-1.251173	-0.142941	0.547175	0.24512	-0.246432	-0.367415	-0.752226	-0.445373	-0.431789
-1.928865	-2.55162	-1.069819	-1.818013	-1.285317	0.00954	-1.272381	-1.22054	-0.215978	0.474684	0.220904	-0.279397	-0.308806	-0.688861	-0.308019	-0.302455
-1.986695	-2.374826	-0.984644	-1.760779	-1.223083	0.079935	-1.241781	-1.171539	-0.150492	0.569011	0.249472	-0.237032	-0.347381	-0.743462	-0.396204	-0.29357
-1.868713	-2.189253	-0.925584	-1.661391	-1.223083	0.079935	-1.241781	-1.181773	-0.066666	0.668337	0.330482	-0.134779	-0.333506	-0.716178	-0.367589	-0.208263
-1.868713	-2.030377	-0.84019	-1.593507	-1.198838	0.10011	-1.228485	-1.190236	-0.042233	0.65814	0.33263	-0.131681	-0.231505	-0.632671	-0.16849	-0.0910960000000001
-1.982984	-1.917535	-0.84019	-1.534062	-1.198346	0.092006	-1.211154	-1.183903	0.058766	0.804054	0.417139	-0.01965	-0.11066	-0.530396	-0.031618	0.0435800000000001
-1.573159	-1.539768	-0.672622	-1.412935	-1.06216	0.194886	-1.136501	-1.057474	0.061874	0.773358	0.41427	-0.027631	0.032458	-0.372765	0.14683	0.180855
-1.456042	-1.235339	-0.500511	-1.321788	-0.96214	0.304104	-1.059244	-0.977435	0.083286	0.807944	0.481726	0.037168	-0.119966	-0.525538	-0.061743	0.118692
-1.278613	-0.979381	-0.458274	-1.247529	-0.874363	0.389331	-0.973033	-0.876518	0.094008	0.800182	0.500041	0.016755	0.010652	-0.411633	0.066647	0.232053
-1.741046	-1.058345	-0.632071	-1.324501	-0.798214	0.448437	-0.901582	-0.791535	0.177037	0.888968	0.565909	0.105227	0.085596	-0.328901	0.075946	0.267399
-1.092258	-0.550029	-0.396358	-1.135689	-0.711139	0.50935	-0.818362	-0.684633	0.309682	1.023182	0.672033	0.205244	0.253058	-0.172768	0.335419	0.401416
-0.799542	-0.303519	-0.221311	-1.014301	-0.659707	0.546404	-0.714549	-0.594641	0.435397	1.15585	0.76137	0.326689	0.377433	-0.008214	0.394179	0.472662
-0.981534	-0.409861	-0.307238	-1.039242	-0.546128	0.642507	-0.605926	-0.461796	0.519587	1.227645	0.839113	0.384396	0.466042	0.087151	0.463944	0.539859
-1.043381	-0.377936	-0.306251	-1.005685	-0.369093	0.857855	-0.436109	-0.280367	0.470019	1.125128	0.806211	0.318951	0.519263	0.141628	0.606274	0.591932
-0.984403	-0.426784	-0.284017	-0.995127	-0.394112	0.792191	-0.435189	-0.278089	0.527044	1.166107	0.879349	0.417699	0.553221	0.2224	0.54447	0.623088
-1.273772	-0.518815	-0.352343	-0.983397	-0.40628	0.798878	-0.394786	-0.273504	0.537814	1.200992	0.928118	0.47555	0.40963	0.117881	0.283863	0.528647
-0.979428	-0.498792	-0.265655	-0.91427	-0.342875	0.891213	-0.364296	-0.227655	0.662159	1.338741	1.079808	0.735868	0.438583	0.151422	0.243935	0.544282
-1.511143	-0.894571	-0.503088	-1.052381	-0.317545	0.988305	-0.317572	-0.16887	0.576708	1.219426	1.000126	0.595997	0.523994	0.256047	0.303863	0.618505
-1.095371	-0.712845	-0.331099	-0.90821	-0.356005	1.015128	-0.287013	-0.160597	0.615646	1.264649	1.018536	0.603783	0.538754	0.27076	0.374237	0.632129
-1.2205	-0.931322	-0.41596	-0.9248	-0.318417	1.134988	-0.233928	-0.095704	0.651341	1.29964	1.052826	0.673137	0.560722	0.321876	0.334406	0.641177
-1.04188	-0.835001	-0.308164	-0.828419	-0.394112	1.073381	-0.207676	-0.088789	0.789336	1.454226	1.111598	0.771866	0.593218	0.349575	0.343739	0.683865
-1.103414	-0.879931	-0.328443	-0.832441	-0.33096	1.195664	-0.129098	-0.002541	0.849474	1.495763	1.117706	0.771086	0.624362	0.392573	0.414137	0.749415
-1.043381	-0.891576	-0.308164	-0.805294	-0.330675	1.168706	-0.097424	0.018724	0.895589	1.489707	1.078471	0.723047	0.628531	0.373072	0.515756	0.797021
-1.043381	-0.823426	-0.220342	-0.761007	-0.240786	1.244262	-0.033014	0.093303	0.924639	1.512185	1.098097	0.702282	0.728776	0.481024	0.676982	0.883076
-0.863868	-0.698394	-0.113823	-0.735822	-0.340986	1.046062	-0.10071	-0.034501	0.989876	1.516338	1.109451	0.719266	0.651642	0.412197	0.463944	0.819499
-0.863868	-0.746791	-0.071078	-0.735822	-0.227916	1.063413	-0.110849	-0.022728	1.021083	1.520588	1.109109	0.668789	0.562242	0.275721	0.323874	0.717735
-0.735812	-0.578685	0.056922	-0.679161	-0.226772	0.987663	-0.139572	-0.07228	1.175738	1.640771	1.200091	0.776267	0.520377	0.213708	0.293791	0.67034
-0.740856	-0.604571	0.101433	-0.706514	-0.072913	1.058269	-0.147735	-0.023852	1.157434	1.603645	1.180364	0.752965	0.659118	0.350129	0.545174	0.726852
-0.616106	-0.432741	0.208712	-0.653851	-0.010835	1.06884	-0.168885	-0.040383	1.157434	1.628542	1.186507	0.738343	0.673579	0.343766	0.504173	0.751655
-0.801679	-0.518815	0.122261	-0.729697	0.01751	1.058269	-0.178389	-0.021448	1.129298	1.617863	1.197692	0.740406	0.790653	0.443365	0.614681	0.792356
-0.559748	-0.306262	0.274969	-0.658033	-0.00892699999999996	0.997514	-0.22011	-0.07705	1.049686	1.58484	1.172984	0.672232	0.666459	0.33809	0.434614	0.71794
-0.561621	-0.188107	0.232399	-0.695946	0.105587	1.087966	-0.205765	0.00447400000000001	1.049686	1.638873	1.177895	0.705693	0.664412	0.344086	0.494146	0.710967
-0.618726	-0.0922749999999999	0.209345	-0.740247	0.01751	1.004649	-0.248746	-0.040346	0.974842	1.547366	1.144772	0.706724	0.693618	0.403534	0.48399	0.735796
-0.738559	-0.0721149999999999	0.122261	-0.776014	0.067355	1.048826	-0.243547	0.000931999999999988	0.831884	1.41498	1.033201	0.545751	0.598694	0.289878	0.303863	0.668109
-0.559748	0.222318	0.165446	-0.717073	0.067355	1.144076	-0.196656	0.068415	0.892154	1.520588	1.088254	0.668789	0.525829	0.261572	0.214112	0.625273
-0.561621	0.262947	0.079156	-0.756968	-0.034877	1.051154	-0.258841	0.011587	0.849474	1.487361	1.069904	0.63624	0.573435	0.335999	0.344793	0.641177
-0.440906	0.453403	0.14611	-0.685368	-0.022321	1.075683	-0.251679	0.030518	0.813658	1.437767	1.036805	0.613943	0.482235	0.2506	0.234317	0.584767
-0.492999	0.469436	0.012579	-0.725532	-0.04742	1.053504	-0.256884	0.035312	0.856311	1.466746	1.035598	0.639645	0.587776	0.366532	0.333761	0.645546
-0.559748	0.382962	0.058409	-0.742314	-0.023444	1.083408	-0.245473	0.061311	0.859757	1.475185	1.039235	0.649977	0.540436	0.357958	0.274041	0.647826
-0.735812	0.172707	-0.139011	-0.822266	-0.112167	0.992865	-0.29134	-0.022728	0.874001	1.435892	0.991505	0.595135	0.458696	0.281341	0.174651	0.564527
-0.616106	0.143395	-0.051238	-0.811743	-0.098386	1.024323	-0.297528	-0.026245	0.941855	1.508502	1.033111	0.672232	0.416818	0.261572	0.174247	0.528534
-0.49844	0.015263	-0.051928	-0.847437	-0.12583	0.946981	-0.331899	-0.075852	0.877918	1.443905	1.00388	0.62949	0.43137	0.267175	0.154692	0.503892
-0.683428	-0.225692	-0.091548	-0.90373	-0.125095	0.961503	-0.339056	-0.092392	0.792691	1.322211	0.940383	0.531266	0.411402	0.241925	0.144399	0.463461
-0.976878	-0.521338	-0.246608	-1.023305	-0.151957	0.911359	-0.380477	-0.150021	0.729424	1.252506	0.89926	0.478099	0.456842	0.290246	0.254189	0.490419
-0.860366	-0.547437	-0.15825	-0.983397	-0.252548	0.827822	-0.431441	-0.237192	0.750196	1.274951	0.908846	0.510224	0.524326	0.361594	0.355275	0.546693
-1.04188	-0.721434	-0.245177	-1.018908	-0.252935	0.878967	-0.393845	-0.212476	0.739387	1.254355	0.890435	0.502323	0.42231	0.2392	0.164573	0.479217
-0.864942	-0.621483	-0.15649	-0.941292	-0.238358	0.917216	-0.36764	-0.181919	0.689511	1.219426	0.864759	0.439954	0.523994	0.33541	0.283863	0.575753
-0.799542	-0.530106	-0.094831	-0.885143	-0.277901	0.871304	-0.352395	-0.194878	0.68549	1.264753	0.898712	0.467822	0.464321	0.228497	0.285225	0.54452
-1.103414	-0.726768	-0.15649	-0.951832	-0.291158	0.893462	-0.345251	-0.188991	0.68549	1.235936	0.870679	0.43886	0.402302	0.188234	0.154439	0.533058
-1.276411	-0.837857	-0.267951	-0.991879	-0.303236	0.859109	-0.374777	-0.203104	0.653832	1.213268	0.86711	0.40326	0.467687	0.182366	0.254047	0.562255
-0.924215	-0.661564	-0.113823	-0.893179	-0.317856	0.872312	-0.356201	-0.208837	0.622261	1.200992	0.875849	0.393392	0.554991	0.247906	0.484385	0.634335
-1.273772	-0.868721	-0.332565	-1.025353	-0.444655	0.734522	-0.442338	-0.336686	0.647145	1.200992	0.875849	0.415709	0.462188	0.174146	0.393781	0.557747
-1.039933	-0.701511	-0.244371	-0.972885	-0.544405	0.663559	-0.47896	-0.423457	0.537814	1.008938	0.761746	0.264078	0.366059	0.030371	0.273831	0.474669
-0.981534	-0.498792	-0.202511	-0.983397	-0.431195	0.782178	-0.402872	-0.401132	0.612366	1.023182	0.707118	0.252935	0.366486	-0.036141	0.314516	0.436649
-0.979428	-0.254527	-0.114694	-0.962364	-0.316863	0.823306	-0.332841	-0.419847	0.661259	1.059739	0.663231	0.251491	0.313645	-0.154669	0.244031	0.454488
-1.338489	-0.36101	-0.28855	-1.077347	-0.227174	0.888986	-0.24737	-0.417558	0.64383	1.002675	0.588207	0.186295	0.331988	-0.224256	0.264441	0.515065
-1.160468	-0.037482	-0.136057	-1.022874	-0.125473	0.928024	-0.153545	-0.388335	0.67538	0.986232	0.537298	0.181788	0.477	-0.095496	0.514741	0.726762
-0.916055	0.333102	-0.031054	-0.966831	-0.049937	0.970937	-0.087674	-0.362217	0.838666	1.174291	0.585588	0.318951	0.396958	-0.165949	0.353812	0.753952
-0.918765	0.494524	0.035401	-0.958362	0.105222	1.091285	0.042101	-0.23591	0.778518	1.116944	0.514486	0.243679	0.560722	-0.028305	0.625321	0.928416
-0.495948	0.894648	0.166119	-0.872581	0.080356	1.039733	0.066688	-0.252405	0.800164	1.157995	0.523236	0.299186	0.562447	-0.022984	0.635066	0.964875
-0.860366	0.846864	0.014651	-0.972885	0.158077	1.108064	0.113994	-0.193655	0.842712	1.229701	0.560446	0.399951	0.429742	-0.154669	0.403912	0.858097
-0.681878	1.049845	0.102228	-0.949849	0.247804	1.145145	0.143967	-0.118264	0.793528	1.227843	0.541505	0.401306	0.438983	-0.132075	0.434114	0.846746
-0.863868	0.90083	-0.047867	-1.074686	0.156543	1.057876	0.071087	-0.213405	0.637253	1.023182	0.413689	0.259353	0.457607	-0.112039	0.495815	0.785547
-1.16329	0.693811	-0.196993	-1.184594	0.194614	1.095072	0.076497	-0.161402	0.503254	0.90315	0.30449	0.111567	0.386729	-0.16254	0.395039	0.692892
-1.102069	0.669079	-0.264768	-1.216103	0.156896	1.116018	0.046527	-0.173456	0.425695	0.854322	0.303388	0.162327	0.331988	-0.24943	0.244585	0.568988
-1.044436	0.651892	-0.262811	-1.218003	0.015426	0.993949	-0.0469	-0.278089	0.405359	0.877247	0.324402	0.214866	0.397708	-0.19035	0.376526	0.562303
-1.098045	0.565286	-0.331099	-1.245586	0.00283	1.049849	-0.0469	-0.238207	0.348309	0.850388	0.314418	0.198858	0.369241	-0.248405	0.29734	0.508425
-1.39632	0.251337	-0.480302	-1.305593	0.027694	1.103645	-0.03057	-0.190008	0.348309	0.858273	0.303388	0.19093	0.353855	-0.291057	0.235126	0.503847
-1.270699	0.245057	-0.462077	-1.272912	-0.011155	1.043364	-0.049653	-0.215674	0.396661	0.933286	0.333147	0.22605	0.442414	-0.19381	0.354313	0.593749
-1.331046	0.090406	-0.353126	-1.231214	0.028035	1.047665	-0.023334	-0.150021	0.441955	1.008624	0.350869	0.196139	0.471918	-0.201663	0.375149	0.607254
-1.20653	0.075949	-0.269179	-1.165001	0.156212	1.211503	0.086537	-0.004858	0.572548	1.164051	0.433724	0.304538	0.513347	-0.182529	0.394179	0.645546
-0.912901	0.186547	-0.051928	-1.085808	0.2103	1.18564	0.09951	0.03291	0.612366	1.186651	0.480024	0.307102	0.622619	-0.050963	0.524423	0.751655
-1.031435	-0.00260300000000002	-0.0316010000000001	-1.071284	0.350207	1.238523	0.132932	0.111244	0.731955	1.347195	0.56015	0.373315	0.666715	-0.030937	0.585212	0.758404
-1.039933	-0.103802	0.059244	-1.08131	0.417313	1.278955	0.154112	0.149119	0.764351	1.355182	0.609904	0.40326	0.735762	0.058434	0.614681	0.787938
-1.331046	-0.315005	-0.075151	-1.142105	0.443165	1.22037	0.113033	0.106354	0.793528	1.406741	0.693758	0.47015	0.657389	0.013675	0.494146	0.708715
-0.979428	-0.0867920000000001	0.145292	-1.056369	0.548133	1.281265	0.129456	0.159823	0.771084	1.386387	0.678657	0.456731	0.747559	0.09592	0.606274	0.713211
-1.088708	-0.132492	0.097955	-1.1026	0.534469	1.222643	0.072973	0.095675	0.715303	1.318109	0.680402	0.481335	0.737551	0.114664	0.473928	0.684003
-1.280377	-0.288387	0.059244	-1.154037	0.533606	1.218121	0.032026	0.07197	0.622261	1.250341	0.627871	0.409935	0.710977	0.08191	0.515756	0.586994
-1.331046	-0.306262	-0.00953099999999996	-1.167032	0.533606	1.215892	0.022916	0.080277	0.626445	1.283118	0.660946	0.499039	0.649867	0.058434	0.383936	0.521816
-1.276411	-0.254527	-0.00829400000000002	-1.173029	0.469952	1.183329	-0.013284	0.062526	0.505534	1.182547	0.56505	0.369955	0.60311	0.033741	0.285225	0.420898
-1.278613	-0.254527	-0.051238	-1.160589	0.429592	1.161934	-0.016094	0.061311	0.548593	1.283118	0.619802	0.499039	0.567726	-0.000831999999999999	0.164271	0.400795
-1.21858	-0.234298	-0.051238	-1.150123	0.349891	1.109594	-0.050557	0.0224	0.519587	1.260581	0.583272	0.486673	0.626123	0.100594	0.263938	0.483705
-1.280377	-0.242835	-0.050488	-1.141604	0.338578	1.120412	-0.03057	0.074332	0.551867	1.291356	0.600383	0.545751	0.646121	0.111697	0.303863	0.535648
-1.393994	-0.225692	-0.116941	-1.133686	0.29859	1.099314	0.00656699999999999	0.096911	0.533649	1.293606	0.572283	0.50453	0.737551	0.182366	0.453866	0.645764
-1.399666	-0.230968	-0.114694	-1.141604	0.324732	1.142962	0.0456029999999999	0.137243	0.579242	1.330966	0.580687	0.496821	0.788817	0.250217	0.514107	0.751926
-1.568142	-0.167913	-0.139011	-1.131667	0.351682	1.134988	0.063834	0.174042	0.667963	1.405118	0.627871	0.533547	0.796228	0.216434	0.665499	0.810624
-1.21858	0.119495	0.07991	-1.006407	0.417313	1.195664	0.137672	0.238338	0.668734	1.408823	0.682678	0.568111	0.821875	0.219181	0.614681	0.856062
-1.160468	0.23622	0.122261	-0.981386	0.404623	1.124893	0.121243	0.178834	0.696969	1.39853	0.70214	0.513497	0.911865	0.304043	0.745888	0.974288
-0.922846	0.656989	0.320511	-0.891195	0.534931	1.20801	0.193306	0.259811	0.731955	1.425625	0.730874	0.544668	0.851529	0.247906	0.7266	0.953485
-0.973885	0.791217	0.338999	-0.891521	0.586817	1.22037	0.224303	0.257391	0.764351	1.406913	0.770983	0.552432	0.843964	0.253314	0.705747	0.990018
-0.801679	0.957141	0.407287	-0.866105	0.678043	1.274403	0.280075	0.314615	0.839359	1.501864	0.862429	0.648545	0.864069	0.207825	0.675185	0.985706
-0.916055	0.892281	0.295488	-0.916652	0.769965	1.330782	0.344208	0.37435	0.956559	1.6311	0.915762	0.741812	0.733925	0.0948040000000001	0.474201	0.924386
-0.738559	1.076894	0.405951	-0.874621	0.744852	1.278955	0.329644	0.338554	0.974842	1.603645	0.895131	0.673137	0.829198	0.210602	0.644984	0.988096
-0.557418	1.218177	0.493774	-0.813802	0.73317	1.244262	0.362749	0.354218	0.974842	1.613966	0.865932	0.658578	0.752171	0.128743	0.574505	0.924386
-0.436968	1.127834	0.45014	-0.86409	0.836466	1.362448	0.433342	0.417474	0.92065	1.527342	0.804894	0.584034	0.901101	0.287546	0.858022	1.017224
-0.677414	0.975241	0.383592	-0.920759	0.758145	1.266595	0.417754	0.349322	0.953136	1.568463	0.792824	0.595997	0.85306	0.227537	0.77638	0.926781
-0.732617	0.832482	0.251062	-0.95224	0.641299	1.144076	0.418761	0.275435	1.017653	1.622497	0.813498	0.676531	0.788817	0.182366	0.735848	0.881186
-0.793926	0.731573	0.273254	-0.962714	0.64023	1.197961	0.483178	0.311134	1.006795	1.622497	0.790469	0.661963	0.910027	0.35235	0.93856	0.962875
-0.551397	0.701808	0.33855	-0.866363	0.678987	1.251935	0.556057	0.370875	0.992515	1.618222	0.796577	0.684322	0.913943	0.34137	0.96969	0.955814
-0.372512	0.701808	0.47086	-0.784456	0.655142	1.273628	0.614483	0.391554	1.003374	1.613966	0.795411	0.695518	0.867858	0.318516	0.908273	0.990018
-0.724891	0.469436	0.381558	-0.811685	0.77093	1.389554	0.683475	0.488209	0.97083	1.533326	0.744238	0.599394	0.972982	0.483717	1.071992	1.156513
-0.790448	0.441921	0.426267	-0.74446	0.732615	1.337689	0.709634	0.493137	1.117856	1.66631	0.819603	0.742648	1.068599	0.591683	1.142491	1.26473
-1.20653	0.19297	0.228545	-0.824308	0.811391	1.446142	0.814507	0.572414	1.283508	1.848307	0.947525	0.92971	1.111282	0.677707	1.276597	1.35401
-0.973885	0.353539	0.404868	-0.74446	0.865351	1.46798	0.849232	0.599138	1.341322	1.907266	0.98539	0.962692	1.089007	0.694817	1.163213	1.347298
-1.213427	0.166145	0.338999	-0.769728	0.929347	1.515265	0.901778	0.655315	1.327119	1.885328	1.005067	0.941754	1.066773	0.694817	1.091603	1.335754
-0.979428	0.306474	0.427738	-0.725532	0.918875	1.497554	0.897631	0.626739	1.30177	1.824854	0.979339	0.908041	1.011592	0.637612	1.020791	1.23688
-1.388043	0.134385	0.27242	-0.824308	0.917655	1.495148	0.88077	0.583269	1.359548	1.833591	0.962175	0.926209	0.913943	0.571814	0.858022	1.138314
-1.568142	0.000147000000000008	0.164285	-0.887323	1.022522	1.628959	0.918634	0.657783	1.341559	1.860256	1.033201	1.026548	0.838351	0.50597	0.654999	1.063377
-1.621448	-0.0721149999999999	0.09759	-0.918693	1.035938	1.673476	0.912339	0.651873	1.269449	1.761855	0.969637	0.956443	0.807268	0.469015	0.614968	0.971916
-1.393994	0.107782	0.229825	-0.853774	0.903159	1.530038	0.813449	0.526589	1.1792	1.676621	0.908558	0.88992	0.902851	0.531841	0.777384	1.010492
-1.152922	0.262947	0.251062	-0.790725	0.852592	1.539552	0.815572	0.52564	1.143074	1.695566	0.924368	0.922729	0.864069	0.517381	0.654999	0.999526
-0.976878	0.382962	0.317233	-0.7676	0.761	1.416127	0.735848	0.457285	1.125261	1.701565	0.908558	0.930506	0.910027	0.540236	0.715633	1.038085
-1.388043	0.134385	0.09759	-0.860001	0.747669	1.443248	0.712823	0.468109	1.006795	1.60791	0.858638	0.820107	0.945015	0.511721	0.806676	1.092937
-1.453871	0.256693	0.12102	-0.853774	0.786448	1.50994	0.759959	0.547334	0.999397	1.606211	0.854884	0.801122	0.898987	0.437577	0.705463	1.104401
-1.568142	0.175014	0.011058	-0.931276	0.787056	1.512355	0.752635	0.558188	0.97083	1.587315	0.826893	0.771866	0.887959	0.423351	0.715609	1.138827
-1.338489	0.297743	0.078465	-0.881027	0.681719	1.384213	0.679298	0.476446	1.017171	1.6311	0.868294	0.826958	0.875088	0.426189	0.715609	1.161806
-1.216223	0.583132	0.142642	-0.841177	0.72044	1.394211	0.653136	0.471494	0.963462	1.54191	0.80249	0.723729	0.900835	0.437577	0.786384	1.150313
-1.213427	0.642394	0.0988680000000001	-0.899906	0.628037	1.268917	0.541457	0.332666	0.917216	1.483694	0.779442	0.676531	0.910027	0.488866	0.867446	1.147888
-1.267193	0.750096	0.032296	-0.966858	0.678504	1.301453	0.482163	0.301466	0.891736	1.451367	0.75748	0.653461	0.75958	0.35235	0.675314	0.974288
-0.979428	0.966153	0.144537	-0.943803	0.587782	1.222643	0.394888	0.187141	0.877918	1.390623	0.746835	0.669764	0.717726	0.292967	0.675912	0.851379
-1.100279	0.793523	-0.0954999999999999	-1.096266	0.495835	1.149574	0.2903	0.074332	0.731419	1.222169	0.608479	0.485729	0.684638	0.298465	0.574824	0.772259
-1.104312	0.799572	-0.135167	-1.139649	0.445102	1.117166	0.253001	0.035312	0.699647	1.178903	0.585588	0.490036	0.626123	0.247433	0.514191	0.702325
-1.155876	0.740797	-0.204448	-1.175421	0.470951	1.212603	0.261261	0.086304	0.614837	1.117152	0.554365	0.439954	0.695465	0.312555	0.554356	0.761416
-1.102069	0.63623	-0.179593	-1.150123	0.406102	1.171008	0.231269	0.091168	0.579242	1.135718	0.543366	0.417699	0.668028	0.244518	0.564347	0.761416
-0.855071	0.679274	-0.183531	-1.113019	0.430461	1.205748	0.275772	0.159823	0.614837	1.215482	0.600383	0.473415	0.679286	0.230583	0.485575	0.793877
-0.618726	0.772837	0.03473	-1.002364	0.301975	1.044236	0.223012	0.099429	0.628951	1.273152	0.61599	0.476701	0.710151	0.261544	0.584811	0.838639
-0.799542	0.432894	-0.0954999999999999	-1.073321	0.313212	1.022983	0.244745	0.130125	0.685045	1.352456	0.647116	0.467031	0.660865	0.176866	0.624826	0.838042
-0.740856	0.465063	0.058409	-0.9939	0.379284	1.085676	0.325394	0.234887	0.70702	1.365897	0.678879	0.491159	0.722977	0.221903	0.615502	0.93648
-0.732617	0.389919	0.075927	-0.981537	0.445102	1.114857	0.358534	0.299423	0.735341	1.399149	0.721263	0.520102	0.783408	0.298364	0.686005	1.009235
-0.801679	0.268506	0.166855	-0.9939	0.469952	1.097985	0.365796	0.302815	0.741828	1.371339	0.690723	0.415925	0.827635	0.278835	0.898446	1.067642
-0.851755	0.181827	0.141687	-0.994085	0.535416	1.127166	0.406251	0.343439	0.834743	1.447031	0.795201	0.548069	0.796264	0.272858	0.716054	1.052633
-0.860366	0.148621	0.209345	-1.002364	0.511683	1.051154	0.384465	0.296105	0.866705	1.449903	0.815843	0.58751	0.814493	0.292686	0.715609	1.05676
-0.857941	0.105148	0.229337	-0.996179	0.575065	1.127166	0.414555	0.345899	0.852884	1.438415	0.819603	0.549082	0.743274	0.225096	0.685614	1.012849
-1.04188	0.000147000000000008	0.209345	-1.037861	0.561841	1.081162	0.412496	0.321897	0.960001	1.571072	0.917056	0.716867	0.777819	0.278521	0.594674	1.004355
-1.158392	-0.121328	0.120491	-1.056724	0.561841	1.083408	0.420797	0.330223	0.874511	1.429871	0.823367	0.582605	0.93951	0.414811	0.82695	1.079694
-1.21858	-0.0288689999999999	0.166119	-1.014879	0.588297	1.144076	0.46235	0.394909	0.848978	1.451367	0.824373	0.573721	0.950748	0.42364	0.868584	1.065268
-1.451267	-0.170469	0.011058	-1.077592	0.562361	1.127166	0.46235	0.397383	0.86711	1.442714	0.828079	0.595997	0.922905	0.409133	0.705463	1.065794
-1.336444	0.000147000000000008	0.12161	-1.033762	0.601536	1.171008	0.494596	0.446466	0.888007	1.487916	0.804926	0.557826	1.026181	0.491709	0.877615	1.120725
-1.158392	0.0962460000000001	0.142642	-0.948078	0.652486	1.232743	0.556057	0.539881	0.895237	1.518453	0.835312	0.613178	1.050174	0.508841	0.908297	1.14616
-1.103414	0.210143	0.232399	-0.920759	0.69276	1.281265	0.607181	0.615864	0.927575	1.544688	0.865776	0.668789	1.161191	0.637434	1.040379	1.237483
-1.393994	0.0670820000000001	0.076758	-0.981537	0.730156	1.299213	0.643736	0.655315	0.924639	1.504237	0.875849	0.670989	1.153718	0.617437	1.091603	1.221095
-1.278613	0.335785	0.187068	-0.90409	0.665732	1.276668	0.622842	0.604994	0.981668	1.562453	0.955005	0.784136	1.068896	0.566012	0.918802	1.166706
-1.570865	0.145777	-0.0316010000000001	-1.029599	0.560864	1.108064	0.50917	0.46068	0.86711	1.325023	0.882899	0.632855	1.0335	0.565949	0.969149	1.186601
-1.453871	0.394518	0.165446	-0.998257	0.366634	0.864482	0.367865	0.158814	0.774477	1.11117	0.837938	0.520102	0.972629	0.471809	0.877683	1.143076
-1.336444	0.462393	0.0994160000000001	-1.056724	0.365672	0.874509	0.340937	0.083889	0.791723	1.087681	0.821923	0.521684	0.847757	0.389218	0.575042	1.074835
-1.160468	0.494524	0.145292	-1.014879	0.184624	0.796628	0.208545	-0.067468	0.73487	1.118011	0.81219	0.580577	0.889816	0.580229	0.725667	1.047139
-1.092258	0.558501	0.033087	-0.981537	-0.020039	0.750172	0.036591	-0.178111	0.646453	1.062128	0.801525	0.614958	0.711962	0.466241	0.504396	0.883143
-0.981534	0.624397	-0.050488	-0.968865	-0.22635	0.675716	-0.138575	-0.33216	0.469352	0.88266	0.683824	0.508948	0.607789	0.403534	0.413792	0.91728
-1.092258	0.710994	-0.226394	-1.031689	-0.453886	0.574158	-0.291572	-0.524743	0.212639	0.520603	0.455333	0.279074	0.507656	0.338176	0.323763	0.928671
-1.027724	0.841712	-0.225851	-1.069231	-0.708106	0.375752	-0.450878	-0.727136	0.0522820000000001	0.345745	0.394374	0.23714	0.377433	0.177512	0.265404	0.830829
-0.793926	0.832482	-0.311261	-1.083778	-0.807645	0.34182	-0.535856	-0.790757	-0.166469	0.132138	0.209913	0.035571	0.284922	0.0898	0.174801	0.738063
-0.981534	0.565286	-0.544527	-1.256034	-0.983981	0.163392	-0.692975	-0.958084	-0.377434	-0.062323	0.096431	-0.062281	0.140704	-0.053616	-0.00379499999999999	0.548755
-0.857941	0.391986	-0.610962	-1.312114	-1.171117	0.012022	-0.856371	-1.140585	-0.638347	-0.326465	-0.100005	-0.313598	-0.119348	-0.336073	-0.466352	0.260023
-1.160468	0.032336	-0.798412	-1.483035	-1.271502	-0.062631	-0.958106	-1.261625	-0.74678	-0.379474	-0.127795	-0.304471	-0.240424	-0.466563	-0.593004	0.093253
-1.634285	-0.320588	-1.031529	-1.645425	-1.346481	-0.120813	-1.029557	-1.325246	-0.924275	-0.512583	-0.225023	-0.437298	-0.232935	-0.540575	-0.543439	0.0246629999999999
-1.809905	-0.504112	-1.179484	-1.702835	-1.506045	-0.250651	-1.104348	-1.442473	-0.924275	-0.451969	-0.158795	-0.334138	-0.149248	-0.490597	-0.475046	0.0645629999999999
-1.573159	-0.401295	-1.075743	-1.619016	-1.432446	-0.17281	-1.096433	-1.367495	-0.948077	-0.428481	-0.158795	-0.35916	-0.167498	-0.499295	-0.51475	0.128835
-1.635564	-0.46369	-1.051298	-1.567143	-1.345985	-0.036572	-1.011917	-1.235335	-0.863134	-0.27931	-0.049945	-0.263485	-0.161682	-0.543091	-0.475046	0.188875
-1.752354	-0.426784	-1.009783	-1.530319	-1.208701	0.10452	-0.878457	-1.062653	-0.767592	-0.188762	0.014424	-0.219712	-0.077821	-0.48185	-0.337842	0.340533
-1.515609	-0.214035	-0.86389	-1.433766	-1.121991	0.140587	-0.818291	-1.017875	-0.587134	0.00709799999999994	0.153443	-0.08102	0.0956050000000001	-0.316186	-0.132651	0.528534
-1.398211	-0.00850200000000001	-0.693635	-1.3512	-1.083584	0.080536	-0.816429	-1.033956	-0.50766	0.0745049999999999	0.212126	-0.062281	0.0688190000000001	-0.382799	-0.240903	0.506079
-1.393994	-0.0316930000000001	-0.674946	-1.359665	-0.922004	0.185231	-0.747217	-0.968442	-0.462577	0.066518	0.224196	-0.068679	0.140704	-0.302327	-0.112405	0.589234
-1.570865	-0.060746	-0.67423	-1.407147	-0.822282	0.221371	-0.73307	-0.973029	-0.473071	0.042694	0.239601	-0.076499	0.207075	-0.280552	-0.122935	0.596026
-1.453871	0.046785	-0.610245	-1.370067	-0.909734	0.126439	-0.796162	-1.090121	-0.414277	0.11025	0.310547	0.018152	0.207075	-0.269315	-0.181995	0.562255
-1.513592	0.01766	-0.631334	-1.373981	-0.895944	0.108857	-0.832414	-1.091327	-0.466745	0.102366	0.325569	0.055074	0.20532	-0.269315	-0.231247	0.510582
-1.564991	-0.0340600000000002	-0.697309	-1.390844	-0.860524	0.148476	-0.852042	-1.086558	-0.466745	0.13026	0.32443	0.091388	0.272	-0.185784	-0.132815	0.587047
-1.511143	0.0265219999999999	-0.653856	-1.347292	-0.897104	0.156874	-0.857292	-1.067229	-0.528583	0.082559	0.284813	0.055074	0.376937	-0.073578	-0.0142800000000001	0.711002
-1.561416	0.024303	-0.697866	-1.318526	-0.797626	0.300223	-0.803233	-0.936191	-0.542205	0.134313	0.253552	0.00452199999999997	0.444156	-0.050963	0.154439	0.835401
-1.513592	0.107782	-0.630539	-1.247529	-0.746951	0.409889	-0.725056	-0.797754	-0.521282	0.201937	0.263318	-0.00532299999999997	0.462616	-0.022182	0.244585	0.955663
-1.451267	0.262947	-0.546861	-1.19592	-0.771964	0.383507	-0.701941	-0.758419	-0.489828	0.251724	0.273141	0.00709200000000001	0.5405	0.064406	0.363977	1.101611
-1.100279	0.574173	-0.395597	-1.106223	-0.808079	0.33735	-0.683033	-0.728147	-0.417401	0.333685	0.344156	0.090975	0.504042	0.013204	0.294768	1.168443
-1.213427	0.660686	-0.461436	-1.137677	-0.657601	0.45932	-0.589383	-0.61445	-0.339543	0.42422	0.402334	0.142074	0.591427	0.0898	0.564347	1.266611
-0.738559	1.12542	-0.159038	-0.999865	-0.646371	0.40776	-0.600333	-0.671498	-0.256318	0.464167	0.459101	0.2228	0.611471	0.128743	0.534653	1.305989
-0.799542	1.197272	-0.223854	-1.070807	-0.645655	0.369254	-0.58423	-0.679607	-0.170529	0.528883	0.526339	0.279074	0.622399	0.114664	0.564625	1.294456
-0.440906	1.46539	-0.090573	-1.007593	-0.544	0.469209	-0.520688	-0.633028	-0.177019	0.458273	0.503508	0.218249	0.585923	0.137344	0.514485	1.259893
-0.307099	1.633497	-0.0746250000000001	-1.016901	-0.51998	0.434167	-0.537793	-0.661046	-0.0584249999999999	0.580776	0.618671	0.369321	0.569521	0.145997	0.44388	1.213889
-0.379598	1.608202	-0.070185	-1.018152	-0.532019	0.412039	-0.536829	-0.674901	0.041045	0.656528	0.653181	0.402222	0.582729	0.132772	0.494747	1.170085
-0.365498	1.583124	-0.139011	-1.077347	-0.418744	0.542118	-0.476104	-0.584356	0.076074	0.690744	0.688311	0.431165	0.589652	0.180163	0.443917	1.133602
-0.070592	1.770717	0.014651	-1.012353	-0.442429	0.497847	-0.474163	-0.593475	0.023828	0.618119	0.633795	0.311263	0.608164	0.214427	0.505204	1.117506
-0.00829099999999999	1.7285	0.0132070000000001	-0.949849	-0.328549	0.605997	-0.396158	-0.468812	0.167509	0.775211	0.767478	0.487864	0.691787	0.307106	0.544231	1.161247
