fnirSoft:	Exported Text File
Version:	4.2
ExportDate:	12/18/2023 11:14:37 AM
VariableInfo
Name:	oxygraph9.oxy.Time1
Size:	2118 x 1
Type:	Numeric
Content:	Time
Date:	12/18/2023 11:14:26 AM
Notes:	Time saved by Oxygraph from file C:\Users\Anette Johansson\Documents\COBI Studio Data\friska kontroller\2011K\MALIN_2011K_1_04260836.oxy
Labels:	OXY	TIME
VariableData
Time

13.825
14.337
14.847
15.357
15.867
16.377
16.887
17.397
17.907
18.417
18.927
19.437
19.947
20.457
20.967
21.477
21.987
22.497
23.01
23.52
24.03
24.54
25.05
25.559
26.069
26.579
27.089
27.599
28.109
28.619
29.129
29.639
30.149
30.659
31.169
31.679
32.189
32.699
33.209
33.719
34.229
34.739
35.249
35.759
36.269
36.779
37.289
37.799
38.309
38.819
39.329
39.839
40.349
40.859
41.369
41.879
42.389
42.899
43.408
43.919
44.428
44.938
45.448
45.959
46.469
46.979
47.489
47.999
48.509
49.019
49.529
50.039
50.549
51.059
51.569
52.079
52.589
53.099
53.609
54.119
54.629
55.139
55.651
56.161
56.671
57.181
57.691
58.201
58.711
59.221
59.731
60.241
60.751
61.262
61.771
62.281
62.791
63.301
63.811
64.321
64.831
65.341
65.851
66.361
66.871
67.381
67.891
68.401
68.911
69.421
69.931
70.441
70.951
71.461
71.971
72.481
72.991
73.501
74.011
74.521
75.031
75.541
76.051
76.561
77.071
77.581
78.091
78.6
79.11
79.62
80.13
80.64
81.151
81.661
82.171
82.681
83.191
83.701
84.211
84.721
85.231
85.741
86.251
86.761
87.271
87.781
88.291
88.803
89.313
89.823
90.333
90.843
91.353
91.863
92.373
92.883
93.393
93.903
94.413
94.922
95.432
95.943
96.453
96.963
97.473
97.983
98.493
99.003
99.513
100.023
100.533
101.043
101.553
102.063
102.573
103.083
103.593
104.103
104.613
105.123
105.633
106.143
106.653
107.163
107.673
108.183
108.693
109.203
109.713
110.223
110.733
111.243
111.753
112.263
112.772
113.282
113.792
114.302
114.812
115.322
115.832
116.343
116.853
117.363
117.873
118.383
118.893
119.403
119.913
120.423
120.933
121.439
121.949
122.459
122.969
123.479
123.989
124.499
125.009
125.519
126.029
126.539
127.049
127.559
128.069
128.579
129.089
129.599
130.109
130.618
131.129
131.638
132.148
132.658
133.168
133.678
134.188
134.698
135.208
135.718
136.228
136.738
137.248
137.758
138.268
138.778
139.288
139.798
140.308
140.818
141.329
141.839
142.349
142.859
143.369
143.879
144.389
144.899
145.409
145.919
146.429
146.939
147.449
147.959
148.468
148.978
149.488
149.998
150.508
151.018
151.528
152.038
152.548
153.058
153.568
154.069
154.574
155.084
155.594
156.104
156.614
157.124
157.634
158.144
158.654
159.164
159.674
160.184
160.694
161.204
161.714
162.224
162.734
163.244
163.754
164.264
164.774
165.283
165.793
166.303
166.813
167.323
167.833
168.343
168.853
169.363
169.873
170.383
170.893
171.404
171.914
172.424
172.934
173.444
173.954
174.464
174.974
175.484
175.994
176.504
177.014
177.524
178.034
178.544
179.054
179.564
180.074
180.584
181.094
181.604
182.114
182.623
183.133
183.643
184.153
184.663
185.173
185.683
186.193
186.703
187.215
187.725
188.235
188.745
189.255
189.765
190.275
190.785
191.295
191.805
192.315
192.825
193.335
193.845
194.355
194.865
195.375
195.885
196.395
196.905
197.415
197.925
198.435
198.944
199.454
199.964
200.474
200.984
201.494
202.004
202.514
203.024
203.534
204.044
204.554
205.064
205.574
206.084
206.595
207.105
207.615
208.125
208.635
209.145
209.655
210.165
210.675
211.185
211.695
212.205
212.715
213.225
213.735
214.245
214.755
215.265
215.775
216.285
216.795
217.305
217.814
218.324
218.834
219.344
219.854
220.366
220.876
221.386
221.896
222.406
222.916
223.426
223.936
224.446
224.956
225.466
225.976
226.486
226.996
227.506
228.016
228.526
229.036
229.546
230.056
230.566
231.076
231.586
232.096
232.606
233.116
233.626
234.135
234.646
235.155
235.665
236.175
236.685
237.195
237.705
238.215
238.725
239.235
239.745
240.255
240.765
241.276
241.786
242.296
242.806
243.316
243.826
244.336
244.846
245.356
245.866
246.376
246.886
247.396
247.906
248.416
248.926
249.436
249.946
250.456
250.966
251.476
251.985
252.496
253.004
253.514
254.024
254.534
255.044
255.554
256.064
256.574
257.084
257.594
258.104
258.614
259.124
259.634
260.144
260.654
261.164
261.675
262.185
262.695
263.205
263.715
264.225
264.735
265.245
265.755
266.265
266.775
267.285
267.795
268.305
268.815
269.324
269.834
270.344
270.854
271.364
271.874
272.384
272.894
273.404
273.914
274.424
274.934
275.444
275.954
276.464
276.974
277.484
277.994
278.504
279.014
279.524
280.034
280.544
281.054
281.565
282.075
282.585
283.095
283.605
284.115
284.625
285.135
285.645
286.151
286.662
287.171
287.681
288.191
288.701
289.211
289.721
290.231
290.741
291.251
291.762
292.272
292.782
293.292
293.802
294.312
294.822
295.332
295.842
296.352
296.862
297.372
297.882
298.392
298.902
299.412
299.922
300.432
300.942
301.452
301.962
302.472
302.982
303.492
304.002
304.511
305.021
305.531
306.041
306.552
307.062
307.572
308.082
308.592
309.102
309.612
310.122
310.632
311.142
311.652
312.162
312.672
313.182
313.692
314.202
314.712
315.222
315.732
316.242
316.752
317.262
317.772
318.282
318.783
319.293
319.803
320.313
320.823
321.333
321.842
322.352
322.862
323.372
323.882
324.392
324.902
325.412
325.922
326.432
326.942
327.452
327.962
328.472
328.982
329.492
330.002
330.512
331.022
331.532
332.042
332.552
333.062
333.572
334.082
334.592
335.102
335.612
336.122
336.632
337.142
337.652
338.162
338.672
339.182
339.691
340.201
340.711
341.221
341.732
342.242
342.752
343.262
343.772
344.282
344.792
345.302
345.812
346.322
346.832
347.342
347.852
348.362
348.872
349.382
349.892
350.402
350.912
351.422
351.937
352.447
352.957
353.467
353.977
354.487
354.997
355.507
356.017
356.527
357.036
357.546
358.056
358.566
359.076
359.586
360.096
360.606
361.116
361.626
362.136
362.646
363.156
363.666
364.176
364.686
365.196
365.706
366.216
366.726
367.236
367.746
368.256
368.766
369.276
369.786
370.296
370.806
371.316
371.827
372.337
372.847
373.357
373.867
374.376
374.886
375.396
375.906
376.416
376.926
377.436
377.946
378.456
378.966
379.476
379.986
380.496
381.006
381.516
382.026
382.536
383.046
383.556
384.066
384.576
385.088
385.598
386.108
386.618
387.128
387.638
388.148
388.658
389.168
389.678
390.188
390.698
391.207
391.717
392.227
392.737
393.247
393.757
394.267
394.777
395.287
395.797
396.307
396.817
397.327
397.837
398.347
398.857
399.367
399.877
400.387
400.897
401.407
401.917
402.427
402.937
403.447
403.957
404.467
404.977
405.487
405.997
406.508
407.018
407.528
408.038
408.548
409.057
409.567
410.077
410.587
411.097
411.608
412.118
412.628
413.138
413.648
414.158
414.668
415.178
415.688
416.198
416.708
417.218
417.728
418.237
418.747
419.257
419.767
420.277
420.787
421.297
421.807
422.317
422.827
423.337
423.847
424.357
424.867
425.377
425.886
426.397
426.907
427.417
427.927
428.437
428.947
429.457
429.967
430.477
430.987
431.497
432.007
432.517
433.027
433.537
434.047
434.557
435.067
435.577
436.087
436.597
437.107
437.617
438.127
438.637
439.147
439.657
440.167
440.677
441.187
441.697
442.207
442.717
443.226
443.736
444.246
444.756
445.266
445.776
446.286
446.797
447.307
447.817
448.327
448.837
449.347
449.857
450.367
450.877
451.39
451.9
452.41
452.92
453.43
453.94
454.45
454.96
455.47
455.98
456.49
457
457.51
458.02
458.53
459.04
459.55
460.06
460.569
461.079
461.59
462.1
462.61
463.12
463.63
464.14
464.65
465.16
465.67
466.18
466.69
467.2
467.71
468.22
468.73
469.24
469.75
470.26
470.77
471.28
471.79
472.3
472.81
473.32
473.83
474.34
474.85
475.36
475.87
476.38
476.891
477.4
477.911
478.42
478.931
479.44
479.95
480.46
480.97
481.48
481.99
482.5
483.01
483.52
484.03
484.537
485.047
485.557
486.067
486.577
487.087
487.597
488.107
488.617
489.127
489.637
490.147
490.657
491.167
491.677
492.187
492.697
493.207
493.717
494.227
494.737
495.247
495.756
496.266
496.776
497.286
497.796
498.306
498.816
499.326
499.836
500.346
500.856
501.366
501.877
502.387
502.897
503.407
503.917
504.427
504.937
505.447
505.957
506.467
506.977
507.487
507.997
508.507
509.017
509.527
510.037
510.547
511.057
511.567
512.077
512.587
513.097
513.606
514.116
514.626
515.136
515.646
516.156
516.666
517.176
517.689
518.199
518.709
519.219
519.729
520.239
520.749
521.259
521.769
522.279
522.789
523.299
523.809
524.319
524.829
525.339
525.849
526.359
526.869
527.379
527.889
528.399
528.909
529.419
529.929
530.439
530.948
531.458
531.968
532.478
532.988
533.498
534.008
534.518
535.028
535.538
536.048
536.558
537.069
537.579
538.089
538.599
539.109
539.619
540.129
540.639
541.149
541.659
542.169
542.679
543.189
543.699
544.209
544.719
545.229
545.739
546.249
546.759
547.269
547.779
548.288
548.798
549.308
549.818
550.328
550.84
551.35
551.86
552.37
552.88
553.39
553.9
554.41
554.92
555.43
555.94
556.45
556.96
557.47
557.98
558.49
559
559.51
560.02
560.53
561.04
561.55
562.06
562.57
563.08
563.59
564.1
564.61
565.12
565.629
566.139
566.649
567.159
567.669
568.179
568.689
569.199
569.709
570.219
570.729
571.239
571.75
572.26
572.77
573.28
573.79
574.3
574.81
575.32
575.83
576.34
576.85
577.36
577.87
578.38
578.89
579.4
579.91
580.42
580.93
581.44
581.95
582.46
582.969
583.479
583.988
584.498
585.008
585.518
586.028
586.538
587.048
587.558
588.068
588.578
589.088
589.598
590.108
590.618
591.128
591.638
592.148
592.658
593.168
593.678
594.188
594.698
595.208
595.718
596.228
596.739
597.249
597.759
598.269
598.779
599.288
599.798
600.308
600.818
601.328
601.838
602.348
602.858
603.368
603.878
604.388
604.898
605.408
605.918
606.428
606.938
607.448
607.958
608.468
608.978
609.488
609.998
610.508
611.018
611.528
612.039
612.549
613.059
613.569
614.079
614.589
615.099
615.609
616.119
616.629
617.134
617.644
618.154
618.664
619.174
619.684
620.194
620.704
621.214
621.724
622.235
622.745
623.255
623.765
624.275
624.785
625.295
625.805
626.315
626.825
627.335
627.845
628.355
628.865
629.375
629.885
630.395
630.905
631.415
631.925
632.435
632.945
633.455
633.965
634.475
634.984
635.495
636.004
636.514
637.025
637.535
638.045
638.555
639.065
639.575
640.085
640.595
641.105
641.615
642.125
642.635
643.145
643.655
644.165
644.675
645.185
645.695
646.205
646.715
647.225
647.735
648.245
648.755
649.265
649.775
650.289
650.799
651.309
651.818
652.329
652.838
653.348
653.858
654.368
654.878
655.388
655.898
656.408
656.918
657.428
657.938
658.448
658.958
659.468
659.978
660.488
660.998
661.508
662.018
662.528
663.038
663.548
664.058
664.568
665.078
665.588
666.098
666.608
667.118
667.628
668.138
668.648
669.157
669.667
670.177
670.687
671.197
671.707
672.217
672.727
673.237
673.747
674.257
674.767
675.277
675.787
676.297
676.807
677.317
677.827
678.337
678.847
679.357
679.867
680.377
680.887
681.397
681.908
682.418
682.928
683.438
683.951
684.461
684.971
685.481
685.991
686.501
687.01
687.52
688.03
688.54
689.05
689.56
690.07
690.58
691.09
691.6
692.11
692.62
693.13
693.64
694.15
694.66
695.17
695.68
696.19
696.7
697.211
697.721
698.231
698.741
699.251
699.761
700.271
700.781
701.291
701.801
702.311
702.821
703.331
703.841
704.351
704.86
705.37
705.88
706.39
706.9
707.41
707.92
708.43
708.94
709.45
709.96
710.47
710.98
711.49
712.001
712.511
713.021
713.531
714.041
714.551
715.061
715.571
716.081
716.591
717.101
717.611
718.121
718.631
719.141
719.651
720.161
720.671
721.181
721.69
722.2
722.71
723.22
723.73
724.24
724.75
725.26
725.77
726.28
726.79
727.3
727.81
728.32
728.83
729.34
729.85
730.36
730.87
731.38
731.89
732.401
732.911
733.421
733.931
734.441
734.951
735.461
735.971
736.481
736.991
737.501
738.011
738.521
739.031
739.54
740.05
740.56
741.07
741.58
742.09
742.6
743.11
743.62
744.13
744.64
745.15
745.66
746.17
746.68
747.19
747.7
748.21
748.72
749.23
749.74
750.25
750.762
751.272
751.782
752.292
752.802
753.312
753.822
754.332
754.842
755.352
755.862
756.371
756.882
757.391
757.901
758.411
758.921
759.431
759.941
760.451
760.961
761.471
761.981
762.491
763.001
763.511
764.021
764.531
765.041
765.551
766.061
766.571
767.082
767.592
768.102
768.612
769.122
769.632
770.142
770.652
771.162
771.672
772.182
772.692
773.202
773.712
774.221
774.731
775.241
775.751
776.261
776.771
777.281
777.791
778.301
778.811
779.321
779.831
780.341
780.851
781.361
781.871
782.381
782.891
783.401
783.909
784.419
784.929
785.439
785.949
786.459
786.969
787.479
787.989
788.499
789.009
789.519
790.029
790.538
791.049
791.558
792.069
792.579
793.089
793.599
794.109
794.619
795.129
795.639
796.149
796.659
797.169
797.679
798.189
798.699
799.209
799.719
800.229
800.739
801.249
801.759
802.269
802.779
803.289
803.799
804.309
804.819
805.329
805.839
806.349
806.859
807.369
807.879
808.389
808.898
809.408
809.918
810.428
810.938
811.448
811.958
812.469
812.979
813.489
813.999
814.509
815.019
815.529
816.039
816.549
817.05
817.564
818.074
818.584
819.094
819.604
820.114
820.624
821.134
821.644
822.154
822.664
823.174
823.684
824.194
824.704
825.214
825.723
826.233
826.743
827.253
827.763
828.273
828.783
829.293
829.803
830.313
830.823
831.333
831.843
832.353
832.863
833.373
833.883
834.393
834.903
835.413
835.923
836.433
836.943
837.453
837.963
838.473
838.983
839.493
840.003
840.513
841.023
841.533
842.043
842.554
843.063
843.573
844.083
844.593
845.103
845.613
846.123
846.633
847.143
847.653
848.163
848.673
849.183
849.693
850.203
850.717
851.227
851.737
852.247
852.757
853.267
853.777
854.287
854.797
855.307
855.817
856.327
856.837
857.347
857.857
858.367
858.877
859.387
859.897
860.406
860.916
861.427
861.936
862.446
862.956
863.466
863.976
864.486
864.996
865.506
866.016
866.526
867.036
867.546
868.056
868.566
869.076
869.586
870.096
870.606
871.116
871.626
872.137
872.647
873.157
873.667
874.177
874.687
875.197
875.707
876.217
876.727
877.237
877.747
878.256
878.766
879.276
879.786
880.296
880.806
881.316
881.826
882.336
882.846
883.356
883.866
884.378
884.888
885.398
885.908
886.418
886.928
887.438
887.948
888.458
888.968
889.478
889.988
890.498
891.008
891.518
892.028
892.538
893.048
893.558
894.068
894.578
895.088
895.597
896.107
896.617
897.127
897.637
898.147
898.657
899.167
899.677
900.187
900.697
901.207
901.717
902.227
902.737
903.247
903.757
904.267
904.777
905.287
905.797
906.307
906.817
907.328
907.838
908.348
908.858
909.368
909.878
910.388
910.898
911.408
911.918
912.427
912.938
913.447
913.957
914.467
914.977
915.487
915.997
916.507
917.017
917.526
918.036
918.546
919.056
919.566
920.076
920.586
921.096
921.606
922.116
922.626
923.136
923.646
924.156
924.666
925.176
925.686
926.196
926.706
927.217
927.727
928.237
928.747
929.257
929.767
930.277
930.786
931.296
931.806
932.316
932.826
933.336
933.846
934.356
934.866
935.376
935.886
936.396
936.906
937.416
937.926
938.436
938.946
939.456
939.966
940.476
940.986
941.496
942.006
942.516
943.026
943.536
944.046
944.556
945.066
945.576
946.086
946.596
947.106
947.617
948.126
948.636
949.146
949.656
950.166
950.676
951.182
951.692
952.202
952.713
953.223
953.733
954.243
954.753
955.263
955.773
956.283
956.793
957.303
957.813
958.323
958.833
959.343
959.853
960.363
960.873
961.383
961.893
962.403
962.913
963.423
963.933
964.443
964.953
965.462
965.972
966.482
966.992
967.502
968.012
968.522
969.032
969.542
970.052
970.562
971.072
971.582
972.092
972.603
973.113
973.623
974.133
974.643
975.153
975.663
976.173
976.683
977.193
977.703
978.213
978.723
979.233
979.743
980.253
980.763
981.273
981.783
982.292
982.802
983.313
983.822
984.332
984.847
985.357
985.867
986.377
986.887
987.397
987.907
988.417
988.927
989.437
989.947
990.457
990.967
991.477
991.987
992.497
993.007
993.517
994.027
994.537
995.047
995.557
996.067
996.577
997.087
997.597
998.107
998.617
999.127
999.636
1000.147
1000.656
1001.166
1001.676
1002.186
1002.697
1003.207
1003.717
1004.227
1004.737
1005.247
1005.757
1006.267
1006.777
1007.287
1007.797
1008.307
1008.817
1009.327
1009.837
1010.347
1010.857
1011.367
1011.877
1012.387
1012.897
1013.407
1013.917
1014.427
1014.937
1015.447
1015.957
1016.466
1016.976
1017.486
1017.997
1018.509
1019.019
1019.529
1020.039
1020.549
1021.059
1021.569
1022.079
1022.589
1023.099
1023.609
1024.119
1024.629
1025.139
1025.649
1026.159
1026.669
1027.179
1027.689
1028.199
1028.709
1029.219
1029.729
1030.239
1030.749
1031.259
1031.769
1032.279
1032.789
1033.299
1033.809
1034.319
1034.829
1035.338
1035.848
1036.358
1036.868
1037.379
1037.889
1038.399
1038.909
1039.419
1039.929
1040.439
1040.949
1041.459
1041.969
1042.479
1042.989
1043.499
1044.009
1044.519
1045.029
1045.539
1046.049
1046.559
1047.069
1047.579
1048.089
1048.599
1049.109
1049.619
1050.129
1050.639
1051.149
1051.658
1052.17
1052.68
1053.19
1053.7
1054.21
1054.72
1055.23
1055.74
1056.25
1056.76
1057.27
1057.78
1058.29
1058.8
1059.31
1059.82
1060.33
1060.84
1061.35
1061.86
1062.37
1062.88
1063.39
1063.9
1064.41
1064.92
1065.43
1065.94
1066.45
1066.96
1067.47
1067.98
1068.49
1068.999
1069.509
1070.02
1070.529
1071.039
1071.549
1072.059
1072.57
1073.08
1073.59
1074.1
1074.61
1075.12
1075.63
1076.14
1076.65
1077.16
1077.67
1078.18
1078.69
1079.2
1079.71
1080.22
1080.73
1081.24
1081.75
1082.26
1082.77
1083.28
1083.79
1084.3
1084.81
1085.32
1085.83
1086.34
1086.849
1087.359
1087.869
1088.379
1088.889
1089.399
1089.909
1090.419
1090.929
1091.439
1091.949
1092.46
1092.97
1093.48
