fnirSoft:	Exported Text File
Version:	4.2
ExportDate:	12/18/2023 11:37:17 AM
VariableInfo
Name:	oxygraph42.oxy.Block1
Size:	1939 x 16
Type:	Numeric
Content:	Hemoglobin
Date:	12/18/2023 11:37:06 AM
Notes:	Oxygenation (difference Hb) concentration changes data saved by Oxygraph from file C:\Users\Anette Johansson\Documents\COBI Studio Data\friska kontroller\2047K\ANETTE_2047K_3_05270841.oxy
Labels:	OXY	DATA
VariableData
Hemoglobin	Hemoglobin	Hemoglobin	Hemoglobin	Hemoglobin	Hemoglobin	Hemoglobin	Hemoglobin	Hemoglobin	Hemoglobin	Hemoglobin	Hemoglobin	Hemoglobin	Hemoglobin	Hemoglobin	Hemoglobin
Optode1	Optode2	Optode3	Optode4	Optode5	Optode6	Optode7	Optode8	Optode9	Optode10	Optode11	Optode12	Optode13	Optode14	Optode15	Optode16
-0.544991	-1.3306	-1.097879	-0.746997	-0.393909	-0.427493	-0.346557	-0.506068	0.16962	0.174845	0.428495	0.36384	-0.74227	-0.878201	-0.824407	-1.361841
-0.515852	-0.983549	-0.914782	-0.607316	-0.557657	-0.816236	-0.542209	-0.801433	0.14298	0.351082	0.493336	0.341284	-0.338045	-0.459927	-0.424931	-0.615152
-0.389087	-0.67329	-0.681711	-0.455896	-0.334366	-0.319451	-0.369378	-0.415096	-0.214953	-0.377209	0.069094	-0.2835	-0.409217	-0.446569	-0.517909	-0.758561
-0.524794	-1.085624	-0.901133	-0.624	-0.23534	-0.066675	-0.174354	-0.166669	0.222501	0.65054	0.56356	0.693804	0.157281	0.284885	-0.07603	0.195678
-0.259611	-0.135692	-0.31496	-0.217579	-0.254999	-0.218883	-0.235437	-0.326382	0.12963	0.550515	0.523492	0.779902	0.280183	0.461971	-0.084525	0.269527
-0.383176	-0.710971	-0.588166	-0.446049	-0.150213	-0.216639	-0.319786	-0.427689	0.129861	0.482415	0.413498	0.628212	-0.125167	-0.133333	-0.322599	-0.379148
-0.286876	-0.259468	-0.250202	-0.21066	-0.229623	-0.251695	-0.427753	-0.736527	0.395006	1.140133	0.78322	1.448665	-0.149861	-0.149082	-0.26939	-0.424538
-0.28789	-0.468244	-0.452684	-0.361555	0.118918	0.407784	0.049951	0.191477	0.155995	0.609788	0.519029	0.919474	-0.239697	-0.327738	-0.349581	-0.668751
-0.213796	-0.279402	-0.418791	-0.25341	0.134933	0.495207	0.073878	0.178342	0.315588	0.920807	0.648605	1.105575	0.082023	0.132878	-0.110058	-0.242725
-0.309162	-0.603836	-0.455395	-0.291873	0.257622	0.633701	0.214553	0.534753	0.04912	0.246754	0.262893	0.484357	-0.243153	-0.223948	-0.379898	-0.795153
-0.192763	-0.241545	-0.235756	-0.060741	0.103779	0.61032	0.178154	0.205106	0.169335	0.629975	0.53767	0.638012	-0.47478	-0.545426	-0.455951	-1.088152
0.206017	0.017996	0.012622	0.354771	0.149878	0.871226	0.130932	-0.16449	0.035868	0.522486	0.720268	0.150911	0.794048	1.38939	1.098351	0.979694
0.152513	-1.187042	-0.41618	0.043863	0.752713	0.993684	0.396616	1.183878	0.189488	0.753881	0.791493	-0.100568	0.726589	1.515314	1.366487	0.874121
0.645003	0.076156	0.329314	0.514283	0.853146	0.938601	0.429907	1.109027	0.141887	0.0182150000000001	0.434533	-0.734732	-0.266804	-0.010418	0.516552	-0.999824
0.099335	-1.407038	-0.374238	-0.239563	0.883259	1.173708	0.591199	1.322195	0.825279	0.815644	0.974278	0.188012	-0.02409	0.23509	0.621872	-0.544212
0.532098	0.039225	0.386564	0.148742	0.849137	1.030583	0.600333	1.192546	0.459873	-0.0975490000000001	0.321996	-0.727122	0.949059	1.491008	1.164766	0.963804
0.359857	-0.598697	0.021142	-0.066599	0.543942	0.53106	0.379125	0.536002	1.273846	1.507049	1.101741	0.714718	0.19513	0.264651	0.549362	-0.25171
0.239469	-0.323814	0.120185	-0.084286	0.517201	0.418425	0.43051	0.617496	1.080047	1.171137	0.862595	0.498982	0.234884	0.335253	0.547231	-0.101085
0.078489	-0.837337	-0.250994	-0.391829	0.326465	0.031874	0.220147	0.26939	0.527381	-0.319497	0.00766300000000009	-0.779902	-0.347798	-0.567987	0.085247	-0.892344
0.367495	-0.079466	0.218548	0.028353	0.448827	0.347763	0.439494	0.56648	0.860044	0.447575	0.401917	-0.241815	0.613239	0.761857	0.726636	0.663748
0.185982	-0.558232	-0.083804	-0.247343	0.032284	-0.472637	-0.09198	-0.432357	1.183178	1.093995	0.762699	0.661629	-0.464867	-0.66881	-0.177087	-1.081613
0.233343	-0.232999	0.078758	-0.057589	0.495264	0.527472	0.41118	0.745069	0.335858	-0.632874	-0.151404	-0.848011	0.014106	0.062348	0.146991	-0.106873
0.308467	-0.441328	0.06053	-0.01977	0.195656	-0.080779	-0.03209	-0.106967	1.062678	1.112571	0.76402	0.829051	0.257497	0.376134	0.345259	0.256824
0.336122	-0.381833	0.119017	-0.021336	0.314987	0.288696	0.032272	0.040784	0.887715	0.639785	0.503003	0.443646	-0.012955	0.184037	0.105543	-0.084043
0.417883	0.076513	0.389367	0.174529	0.700206	1.044397	0.508004	1.14116	0.711991	0.226534	0.290085	0.169219	0.255928	0.601543	0.280294	0.217752
0.434118	0.098749	0.621638	0.383632	0.586115	0.716566	0.279983	0.687509	0.407173	-0.145647	0.104769	0.099325	0.256366	0.60929	0.348383	0.32783
0.386415	-0.195774	0.438142	0.263717	0.630489	0.740516	0.164707	0.475545	1.020379	1.285484	0.743118	1.2983	1.057084	1.704812	0.898297	1.470839
0.394027	-0.119252	0.55688	0.359049	0.727445	0.875853	0.246036	0.642852	0.791729	0.610776	0.458714	0.813914	0.526315	1.083606	0.557721	0.568916
0.682024	0.712786	1.15879	0.807993	0.660376	0.723429	0.11346	0.371954	0.250684	-0.488495	-0.222458	-0.333273	0.55967	1.055729	0.608169	0.491441
0.586577	0.380994	1.013188	0.738214	1.015542	1.422976	0.482284	1.226413	0.782713	0.660297	0.454519	0.860522	0.750084	1.337777	0.844285	0.90936
0.551544	0.138663	0.846134	0.608984	0.925501	1.14218	0.282462	0.908323	0.678484	0.368754	0.338152	0.447734	0.478641	0.89725	0.664358	0.443338
0.59464	-0.107416	0.672254	0.477058	0.890793	1.026064	0.263043	0.762543	0.65384	0.2753	0.353475	0.688115	0.864968	1.415234	0.895868	1.017455
0.723466	0.712786	1.118288	0.788443	1.021251	1.366642	0.360215	1.097039	0.484274	-0.288857	0.100092	0.093386	0.114024	0.231089	0.377577	-0.497291
0.656949	0.149535	0.979613	0.677329	1.251526	1.901038	0.634585	1.69543	0.70618	0.3473	0.485232	0.697668	0.478641	0.601229	0.564682	-0.00950999999999996
0.904328	0.982214	1.486532	1.136512	1.117058	1.496528	0.418611	1.212321	0.837278	0.508929	0.546206	0.697668	0.941716	1.203287	0.924894	0.723948
0.63617	0.034158	0.996414	0.785642	1.098723	1.478978	0.46639	1.371535	1.20189	1.433178	1.006655	1.60573	0.571421	0.757207	0.758601	0.207756
0.850474	0.573596	1.180822	0.922643	1.156656	1.592122	0.584525	1.563027	1.031997	0.851214	0.809486	1.183326	0.396331	0.490687	0.562273	0.037104
0.596437	-0.52201	0.672254	0.651442	0.92701	1.16279	0.349994	1.045619	0.707093	0.297002	0.419849	0.437316	0.876468	1.032915	0.924756	0.645937
0.895667	0.712786	1.223106	1.046939	1.034875	1.347899	0.468177	1.382098	1.031997	0.740804	0.69826	1.104129	0.71884	0.99618	0.909753	0.614871
0.615401	-0.302792	0.819136	0.729062	1.139421	1.53796	0.606902	1.615867	0.782713	0.251674	0.368531	0.396931	0.321486	0.248948	0.517159	-0.149083
0.785694	0.419454	1.053825	0.961049	0.833386	0.992051	0.301373	0.947313	1.260051	1.226706	0.862239	1.302271	0.42943	0.461863	0.668246	0.116722
0.441811	-0.58227	0.50935	0.52908	0.934362	1.233779	0.524464	1.323853	0.834912	0.511059	0.429301	0.597609	0.634966	0.827236	0.699396	0.399058
0.653199	0.227463	0.79851	0.794167	0.941122	1.205447	0.457771	1.312686	0.909562	0.366532	0.514122	0.638012	0.329528	0.330832	0.420639	-0.081517
0.352745	-0.828102	0.33839	0.400816	0.768533	1.02704	0.32066	1.01271	0.44489	-0.52503	-0.03594	-0.287933	0.271645	0.279295	0.451104	-0.035392
0.481782	0.036232	0.808654	0.744216	0.820142	1.219624	0.368553	1.100203	1.0671	0.8502	0.661135	0.992784	0.445655	0.468777	0.488042	0.086762
0.597599	0.559498	1.025353	0.958792	0.858832	1.262102	0.337259	1.070745	0.925716	0.461278	0.499966	0.772596	0.519614	0.549832	0.526414	0.274632
0.441811	0.022045	0.750932	0.820066	0.87215	1.226841	0.399933	1.094013	1.286157	1.344106	0.936753	1.261129	0.485552	0.499602	0.491027	0.20149
0.386415	0.08654	0.679654	0.7321	0.960438	1.57476	0.433387	1.174852	0.978	0.560891	0.555929	0.721668	0.987181	1.235037	0.850197	1.044555
0.441811	0.175575	0.645421	0.786678	1.177831	2.063779	0.750298	1.909919	1.274168	1.11799	0.877902	1.290383	1.200895	1.642083	1.067379	1.54951
0.653199	1.003469	1.201154	1.154137	0.906647	1.532833	0.438484	1.061267	1.238104	1.249478	0.965877	1.407202	1.006782	1.428633	0.887201	1.03216
0.338672	0.088467	0.496479	0.665532	1.004477	1.812964	0.487549	1.193098	1.653136	1.943647	1.359368	2.090691	1.121551	1.478887	0.939868	1.107883
0.394027	0.44485	0.720454	0.744216	0.755662	1.262855	0.180663	0.678769	1.304879	1.358613	1.031527	1.241008	1.208232	1.50858	0.940006	1.304267
0.202488	-0.707201	0.325896	0.454563	0.653786	0.990523	0.039703	0.287646	1.436549	1.400062	1.137962	1.331772	1.061718	1.22584	0.902384	0.983651
0.250434	-0.283563	0.367038	0.570218	0.751367	1.362645	0.258104	0.750683	1.20189	0.880461	0.895621	0.859887	0.776546	0.871912	0.592723	0.413538
0.147793	-0.686013	0.130954	0.325822	0.844301	1.532833	0.506929	1.162896	1.110827	0.610776	0.789119	0.566535	0.897477	0.956928	0.563444	0.414946
0.401699	0.355558	0.69673	0.78959	0.751367	1.241274	0.296872	0.822704	0.837278	0.080317	0.434723	-0.118065	0.922324	0.993304	0.53303	0.507152
0.11322	-0.413508	0.384451	0.487221	0.753395	1.255061	0.352107	0.839882	1.278588	0.840366	0.884425	0.745827	1.111473	1.22584	0.570171	0.707424
0.154502	0.150881	0.625626	0.656635	0.630083	0.999387	0.214553	0.610704	1.147348	0.542446	0.787479	0.459296	0.552473	0.557518	0.282076	0.119702
0.414681	0.508845	0.859364	0.928122	0.653947	1.099012	0.248362	0.618205	1.211884	0.86985	0.94335	0.678772	0.577319	0.593921	0.198047	0.274632
0.373381	0.70114	0.859364	0.923481	0.587175	0.915873	0.335002	0.739921	1.419439	1.226706	1.184544	1.273305	0.790469	1.043684	0.365916	0.691961
-0.16821	-0.807155	-0.022522	0.210101	0.835248	1.501585	0.678669	1.654138	1.221913	0.741806	0.95043	0.754238	0.510864	0.601543	0.237026	0.260815
0.386415	0.791958	0.764767	0.869191	0.526873	0.979612	0.387794	0.775522	1.507264	1.568569	1.332114	1.41173	0.271729	0.333592	0.00959599999999999	-0.093844
-0.00357200000000002	-0.42241	0.065947	0.313442	0.776929	1.388277	0.610053	1.409122	0.70452	-0.279353	0.287792	-0.236065	1.08659	1.52183	0.531785	1.229497
0.023816	-0.110037	0.154353	0.375314	0.460566	0.861554	0.30605	0.74718	1.414428	1.370768	1.210652	1.253206	-0.15858	-0.156076	-0.28044	-0.575829
-0.092665	-0.615165	-0.116659	0.140181	0.337311	0.711434	0.246036	0.483489	1.260051	0.89928	0.970618	0.744306	-0.010078	0.024852	-0.212974	-0.455635
0.14686	0.291044	0.271669	0.453369	0.62419	1.346328	0.641566	1.293809	0.47087	-0.731332	0.147058	-0.477273	0.470566	0.761956	0.181546	0.397648
-0.250957	-0.841602	-0.282893	0.023938	0.516256	1.057863	0.433387	0.885894	0.821319	-0.059602	0.463984	0.064923	0.138882	0.279295	0.037814	-0.06893
0.463821	0.847639	0.58478	0.754859	0.680054	1.395629	0.608453	1.148274	0.380046	-0.894737	0.070182	-0.687519	0.966703	1.358579	0.569072	1.172003
0.127634	0.00437700000000008	0.189956	0.338185	0.561433	1.191841	0.478944	0.928294	0.719742	-0.327834	0.409035	-0.017956	0.703176	0.931214	0.53061	0.677199
0.25968	0.343081	0.314632	0.508123	0.383898	0.719107	0.250793	0.37295	0.917593	0.168702	0.627624	0.262746	0.480187	0.601229	0.331811	0.254687
0.184746	-0.297764	0.036137	0.334202	0.53231	1.020458	0.388761	0.678769	1.051528	0.458577	0.802033	0.546141	0.43007	0.490687	0.255621	0.050675
0.581275	1.008609	0.778216	0.807993	0.616958	1.099012	0.480502	0.87227	1.198755	0.599582	0.920551	0.748887	1.735938	2.321412	1.221201	2.054501
0.186611	-0.28571	0.185174	0.30103	0.390218	0.662759	0.202426	0.295904	1.673245	1.61941	1.469904	1.657568	0.42269	0.409096	0.276511	-0.110264
0.564297	0.800933	0.720137	0.783807	0.825561	1.539545	0.752747	1.384761	0.845791	-0.224231	0.687121	0.051855	1.049885	1.134323	0.718985	0.648364
0.411891	0.317854	0.394113	0.471873	0.745092	1.375562	0.667909	1.165873	1.09663	0.325809	0.936584	0.494445	1.329069	1.671406	0.94819	1.126256
0.454184	0.27839	0.400596	0.492963	0.405428	0.693546	0.221877	0.23248	1.043221	0.286155	0.916009	0.370067	1.620937	1.886384	1.100255	1.402822
0.327415	-0.062804	0.101875	0.230165	0.636351	1.148584	0.484131	0.718295	1.776539	1.819631	1.765885	1.798723	1.440927	1.611411	1.009134	1.121823
0.515694	0.553063	0.370165	0.475525	0.975447	1.813327	0.929097	1.683159	1.290749	0.590221	1.264019	0.740983	1.678467	2.19649	1.17639	1.729599
0.236462	-0.00958700000000001	0.209062	0.271822	0.679866	1.212575	0.609488	1.025456	1.239967	0.680478	1.276067	0.648854	1.042406	1.212843	0.642027	0.474474
0.325997	0.225744	0.351007	0.346487	0.664646	1.156077	0.544142	0.947313	1.814718	1.877891	1.835402	1.680834	1.2492	1.526284	0.856377	0.978951
0.164693	0.030814	0.166772	0.144123	0.790286	1.458088	0.781041	1.370755	0.959666	-0.179408	0.750008	-0.255521	1.155397	1.258054	0.718985	0.756983
0.122822	-0.294592	0.030214	0.049177	0.380894	0.653701	0.267665	0.310513	1.326751	0.820679	1.252045	0.551387	0.555459	0.43358	0.200043	-0.263995
-0.023446	-0.686842	-0.177383	-0.193576	0.593476	1.193189	0.613846	1.048042	1.256839	0.71145	1.236932	0.531787	1.11236	1.198413	0.612646	0.740315
0.11474	-0.110037	0.119026	0.022487	0.382418	0.688013	0.363613	0.476319	0.903678	-0.033734	0.793784	-0.149042	1.174426	1.402817	0.651824	1.017455
0.031536	-0.456445	-0.022522	-0.059192	0.245024	0.31317	0.055761	-0.060464	1.398315	0.968954	1.322759	0.951707	1.009192	1.093959	0.47735	0.754445
-0.196835	-1.131193	-0.353512	-0.296508	0.153626	0.208341	-0.010444	-0.251437	0.995068	0.312242	0.981754	0.423905	0.271755	0.133736	-0.094781	-0.526105
-0.113728	-0.696646	-0.010425	-0.041291	0.337311	0.597675	0.164707	0.222263	1.501085	1.285484	1.433154	1.326281	0.545372	0.514386	0.006855	-0.00588699999999998
0.073121	-0.107416	0.119026	0.055197	0.368826	0.803075	0.272463	0.204648	0.668151	-0.475806	0.419368	-0.289456	0.188469	0.061119	-0.13998	-0.462086
-0.162295	-0.939659	-0.36103	-0.24987	0.519769	1.010479	0.380669	0.558433	1.218353	0.720757	1.083892	0.965061	0.221794	0.185381	-0.131421	-0.398237
0.198087	0.316648	0.355864	0.251925	0.563268	1.088134	0.459704	0.680009	0.813485	-0.141583	0.50633	0.022839	0.951546	1.088706	0.432066	0.661351
0.0251159999999999	-0.329715	0.095494	0.094697	0.456542	0.917561	0.313479	0.329128	0.696411	-0.215013	0.496544	-0.030098	1.036854	1.207632	0.537433	0.832665
0.142982	0.226607	0.379611	0.309359	0.762262	1.445121	0.559694	0.804124	0.842714	0.196561	0.660276	0.292831	0.865395	1.101708	0.429325	0.568436
0.0323830000000001	-0.604111	-0.094799	0.044309	0.699417	1.304445	0.5193	0.721884	1.014586	0.397652	0.78344	0.504752	0.423529	0.357122	0.098549	-0.157378
0.304965	0.342614	0.524747	0.516796	0.921316	1.870223	0.831611	1.384761	0.79244	0.101716	0.702984	0.317824	0.490186	0.372165	0.183539	-0.140409
0.095865	-0.26765	0.077974	0.172106	0.751748	1.5245	0.576094	0.898148	1.278714	0.901512	1.164551	1.108323	0.297422	-0.058191	0.030193	-0.615033
0.325997	0.691632	0.679042	0.607873	0.86029	1.933464	0.837578	1.345993	0.950805	0.358031	0.89088	0.633972	0.706356	0.542276	0.29112	0.097561
0.319443	0.199979	0.524747	0.554486	0.908745	2.000397	0.928574	1.635589	0.913461	0.387015	0.943634	0.619144	0.431647	0.0467109999999999	0.113032	-0.47424
0.52016	1.063547	0.955665	0.884881	0.546958	1.27642	0.431004	0.559747	1.269285	0.992823	1.350125	1.354279	0.900662	0.697512	0.511622	0.427037
0.381107	0.588455	0.583275	0.612306	0.564611	1.269139	0.517674	0.721884	0.872487	0.196561	0.998363	0.712048	0.882998	0.689609	0.442909	0.348685
0.486311	0.822656	0.703013	0.73363	0.629852	1.446062	0.628954	0.868881	0.381937	-0.938462	0.308484	-0.415872	0.809331	0.483045	0.296049	0.047955
0.269533	0.199979	0.226728	0.425573	0.599426	1.311438	0.551139	0.87227	0.69749	-0.389468	0.608425	0.186363	0.576792	0.318783	0.171424	-0.2256
0.448995	1.126902	0.788363	0.801655	0.569019	1.226765	0.577556	0.797127	1.131138	0.621041	1.050122	1.170596	0.482129	0.246327	0.08185	-0.345375
0.448995	0.691632	0.611079	0.739689	0.564611	1.120651	0.531705	0.793638	1.220636	0.909657	1.124807	1.133662	0.515421	0.135784	0.121356	-0.328041
0.702832	1.447612	1.080023	1.075212	0.656022	1.423209	0.749126	1.216581	1.049622	0.383413	0.920575	0.974112	0.607085	0.564354	0.183539	-0.042959
0.412118	0.961116	0.638792	0.66769	0.610562	1.332238	0.768482	1.210662	1.126952	0.591972	0.965877	0.978648	0.753214	0.695858	0.241161	0.212173
0.349566	0.419824	0.367038	0.585147	0.489542	1.157322	0.633148	0.924917	0.917593	0.383413	0.81878	0.556593	0.288302	-0.047601	-0.086265	-0.409553
0.134928	-0.237508	-0.016781	0.268355	0.249632	0.843423	0.342164	0.37295	1.230433	1.018582	1.040464	1.146439	0.213456	-0.146783	-0.202363	-0.693374
0.286093	0.559498	0.558975	0.62518	0.075667	0.399746	0.11346	-0.043915	0.981089	0.404918	0.787479	0.734394	0.213456	0.066517	-0.224967	-0.380815
0.343026	0.432398	0.54387	0.601643	0.187062	0.655297	0.279766	0.344164	0.931563	0.52153	0.829862	0.668777	0.890642	0.917048	0.253757	0.599523
0.142982	-0.395288	0.119242	0.284529	0.352163	1.085973	0.513954	0.829555	1.104586	0.760736	0.963707	1.029714	0.82476	0.911455	0.268335	0.646409
0.310254	0.342445	0.522343	0.495225	0.63213	1.754127	0.871324	1.567822	1.317402	1.323409	1.234908	1.577403	0.599148	0.749014	0.106886	0.380621
0.306319	-0.00958700000000001	0.299902	0.363578	0.368876	1.247914	0.584525	0.678769	1.12111	1.002267	1.168894	1.320178	0.214083	0.011745	-0.183389	-0.574479
0.528456	0.936378	0.792051	0.70783	0.455566	1.375562	0.583065	0.707567	1.189016	1.043385	1.246941	1.396097	0.341052	0.273264	-0.045801	-0.385195
0.0688219999999999	-0.686842	0.024352	0.113197	0.738865	1.844811	0.882722	1.555908	0.956586	0.599593	0.992208	0.935893	0.449824	0.28151	-0.00592800000000004	-0.397592
0.545242	0.730586	0.878253	0.843428	0.380075	1.134147	0.441731	0.424423	1.403364	1.407398	1.503072	1.738179	1.500579	1.645328	0.772064	1.155137
0.498525	0.395659	0.654867	0.640633	0.605756	1.497526	0.711658	0.996946	0.879685	0.476626	0.999582	0.791343	1.551756	1.745651	0.88768	1.250904
0.617436	0.993966	0.834342	0.816585	0.586059	1.34097	0.592919	0.772846	1.174907	0.959166	1.258097	1.27096	1.4424	1.55681	0.787481	0.99713
0.40069	-0.089515	0.391779	0.507215	0.417027	0.940538	0.393705	0.162391	1.598945	1.586756	1.694839	2.022597	1.307497	1.177473	0.710389	0.680611
0.760917	1.082598	1.03254	1.013793	0.496222	1.119898	0.605579	0.544695	1.850623	2.293239	2.05468	2.675254	0.90576	0.857957	0.439765	0.028927
0.229832	-0.453771	0.269508	0.422369	0.798337	1.640651	0.914716	1.441753	1.328613	0.97392	1.362451	1.304855	0.786136	0.520414	0.278211	-0.255837
0.457092	0.897423	0.866973	0.848817	0.551029	1.148456	0.57332	0.548449	1.846356	2.145898	2.020228	2.376103	0.667106	0.423398	0.186137	-0.444751
0.394107	0.329868	0.518145	0.587839	0.784741	1.57476	0.902298	1.190199	1.630332	1.568475	1.655953	1.612399	0.715926	0.431128	0.233818	-0.251468
0.719878	1.532708	1.180822	1.0566	1.008868	1.955694	1.131186	1.823535	0.781304	-0.250744	0.671299	-0.060413	0.565929	0.252839	0.071289	-0.650869
0.316818	0.186695	0.528887	0.54135	0.566615	1.212575	0.61508	0.783212	1.492589	1.332213	1.568581	1.49768	0.547467	0.224718	0.1047	-0.450722
0.633801	1.399804	1.087195	0.882964	0.734168	1.58493	0.929673	1.312686	1.317402	0.780641	1.256326	0.919474	0.42269	-0.0112129999999999	-0.00349699999999997	-0.579349
0.420046	0.251802	0.580663	0.590295	0.443099	1.023721	0.559694	0.400301	0.986174	0.22422	0.9704	0.388688	1.094618	0.936942	0.359542	0.428296
0.529324	0.872561	0.791698	0.712848	0.211452	0.514928	0.255595	-0.034552	1.326751	0.949712	1.203575	1.142172	1.321493	1.341343	0.604053	0.973184
0.322177	0.096045	0.284691	0.387664	0.210252	0.558408	0.354265	0.191477	0.617194	-0.623327	0.404053	-0.161745	0.472116	0.248948	-0.077799	-0.36926
0.646377	1.10247	0.784918	0.815071	0.439749	1.012093	0.56297	0.53081	0.839877	-0.205065	0.530752	0.255665	1.144943	1.157104	0.444102	0.692552
0.204751	-0.42241	0.10132	0.305288	0.314504	0.720049	0.466765	0.279494	1.595027	1.618146	1.376174	1.830555	0.230242	0.06223	-0.163221	-0.590296
0.531085	0.975364	0.822316	0.766928	0.400529	0.941768	0.536713	0.447994	1.400975	1.176977	1.167108	1.530427	0.447026	0.358737	-0.092038	-0.398237
0.572976	0.975364	0.998963	0.918853	0.441404	0.98998	0.445562	0.302038	1.179807	0.651791	0.814135	1.019477	0.695333	0.476722	0.00998200000000005	-0.190652
0.656865	1.321675	1.046657	0.951989	0.391497	0.808056	0.315746	0.156086	1.141201	0.58162	0.739004	1.055943	1.346768	1.600459	0.642612	1.143107
0.5412	0.680179	0.826076	0.772951	0.582228	1.213233	0.62622	0.811147	0.64452	-0.364355	0.251955	0.092805	0.748976	0.623508	0.220921	0.020486
0.595961	0.975364	0.754304	0.751788	0.468981	1.128529	0.501625	0.431915	0.82873	0.130048	0.40992	0.268334	0.748976	0.697512	0.189842	0.067236
0.283942	-0.020443	0.292083	0.371452	0.375011	0.951453	0.349994	0.268318	1.023188	0.333989	0.591726	0.683777	0.780064	0.792233	0.245561	0.226068
0.709857	1.297558	1.058791	0.927627	0.425139	0.986979	0.357146	0.27672	0.816177	-0.091853	0.338673	0.063669	0.923514	0.962651	0.420027	0.490178
0.667637	1.000039	1.010765	0.856205	0.519008	1.198977	0.390766	0.51117	1.002237	0.207605	0.594002	0.607677	0.665442	0.57184	0.181582	-0.153369
0.633983	1.116998	1.066088	0.896875	0.549406	1.150133	0.410108	0.586314	1.566367	1.45895	1.293065	1.646403	0.925989	0.734557	0.403938	0.285558
0.600244	0.381537	0.651477	0.670002	0.736494	1.613088	0.741166	1.204775	1.055529	0.429505	0.776891	0.453966	1.350589	1.17577	0.588313	0.772174
0.564297	0.497328	0.661866	0.640042	0.420644	0.953002	0.408157	0.459717	1.055529	0.640363	0.843017	0.750678	0.791749	0.357122	0.196208	-0.187386
0.598064	0.894204	0.962787	0.828646	0.394732	0.995758	0.388761	0.499451	1.278714	0.961409	1.082303	1.17895	1.054538	0.645124	0.328605	0.100259
0.403734	0.613816	0.774999	0.631239	0.543056	1.262459	0.527988	0.6688	0.991814	0.235805	0.732972	0.473868	1.180645	0.843382	0.465803	0.396543
0.291815	0.148466	0.507399	0.395986	0.549406	1.129392	0.383642	0.582501	1.104586	0.482415	0.866041	0.653249	0.842363	0.475836	0.179694	-0.029567
0.515694	0.639115	0.709869	0.561497	0.139304	0.383646	-0.08088	-0.464392	1.474554	1.45895	1.490349	1.738779	1.379199	1.281187	0.588313	0.911398
0.410215	0.419824	0.507399	0.371263	0.403755	0.899044	0.306293	0.400301	1.065782	0.52153	0.993179	0.937853	1.143848	0.985629	0.425741	0.427037
0.312883	0.122289	0.359085	0.267805	0.233761	0.554668	0.057345	0.022582	0.844222	0.207605	0.838407	0.576765	0.69852	0.30701	0.0963599999999999	-0.136413
0.465252	0.058647	0.322305	0.325781	0.224528	0.734434	0.134663	0.125128	1.067819	0.870718	1.091125	1.006098	1.039574	0.667309	0.411986	0.490178
0.158905	-0.42241	0.125786	0.126936	0.384058	0.904499	0.364293	0.578694	0.750519	0.019206	0.587989	0.418501	0.780064	0.380396	0.198092	-0.056079
0.5412	0.689527	0.809077	0.652209	0.575422	1.318252	0.513954	0.908134	0.856752	0.590221	0.843017	0.828006	1.021851	0.829081	0.297627	0.30309
0.325997	0.213283	0.524747	0.408579	0.581859	1.290219	0.526316	0.826126	0.883346	0.590221	0.909117	0.951537	1.032083	0.911455	0.258424	0.270853
0.347038	0.187233	0.418072	0.379634	0.671187	1.480154	0.663538	1.054985	0.858327	0.286155	0.732972	0.767841	1.026739	0.90862	0.200043	0.242287
0.418362	0.186695	0.372067	0.355076	0.666844	1.381808	0.63723	1.090928	0.765787	0.135259	0.645996	0.51508	1.343065	1.428633	0.444102	0.847719
0.5412	0.830663	0.833048	0.656635	0.518422	1.156077	0.381634	0.595771	0.806524	0.397652	0.840538	0.846046	1.577238	1.674748	0.657665	1.128623
0.319443	0.252019	0.531382	0.383841	0.70168	1.437522	0.49459	0.800622	0.515204	-0.274636	0.447471	0.276329	1.965243	2.270893	0.894504	1.963528
0.703635	1.408657	1.154987	0.946845	0.695343	1.311438	0.427559	0.78668	0.820665	0.376371	0.851968	0.841447	1.097515	0.925635	0.212692	0.380621
0.49458	0.600316	0.733887	0.636717	0.382866	0.619475	0.015786	-0.14352	0.820665	0.325809	0.718889	0.799881	1.310672	1.203287	0.328605	0.521569
0.670007	1.243671	1.03254	0.803369	0.323452	0.511674	0.047109	-0.076582	1.11343	1.126402	1.266984	1.612399	1.094618	0.945355	0.206335	0.381727
0.579093	1.014381	0.813047	0.691156	0.972839	1.784903	0.824841	1.635589	0.900978	0.437524	0.93912	0.887577	1.685297	1.700732	0.672765	1.391995
0.648846	1.116998	0.830083	0.657826	0.845979	1.558116	0.72062	1.3044	1.072083	0.882197	1.213453	1.034066	1.205466	1.218743	0.33244	0.442724
0.553732	0.604099	0.654867	0.584482	0.439467	0.788181	0.3285	0.300041	0.861662	0.477653	0.88416	0.546141	1.03039	0.966486	0.246977	0.220824
0.36312	0.563031	0.455186	0.317562	0.524842	1.09241	0.386803	0.519924	0.874193	0.508929	0.943634	0.556327	0.946438	0.788478	0.12995	0.109547
0.265454	-0.165847	0.168358	0.167662	0.869738	1.901909	0.949139	1.64247	0.688354	-0.150303	0.672926	0.169195	0.75869	0.460959	-0.0228320000000001	-0.204445
0.617436	0.993966	0.785955	0.730661	0.695343	1.466531	0.773215	1.196005	1.057623	0.851214	1.130889	0.828006	1.183926	1.101708	0.294541	0.709777
0.441299	0.303938	0.330412	0.380281	0.391898	0.833574	0.37651	0.392177	1.062008	1.066278	1.212717	1.141617	1.292648	1.287075	0.371668	0.86654
0.763621	1.279273	0.91674	0.821958	0.553387	1.044397	0.499897	0.793638	1.28403	1.314604	1.499012	1.546312	1.034922	0.87441	0.263367	0.537233
0.751277	0.854856	0.727465	0.768846	0.6604	1.269076	0.642805	1.048733	0.793924	0.196561	0.840538	0.484357	1.198156	1.031943	0.316182	0.537739
0.636296	0.629522	0.641085	0.688037	0.594836	1.093223	0.59699	1.009542	0.687104	0.207605	0.89088	0.576765	0.778391	0.587271	0.083825	-0.096777
0.638689	0.422748	0.506052	0.614725	0.649452	1.255081	0.669148	1.087853	0.395503	-0.563381	0.462218	-0.206171	1.012428	0.920209	0.246977	0.347897
0.976577	1.364943	0.914286	1.028434	0.570748	1.078716	0.531705	0.678769	0.59534	-0.038145	0.66819	0.204726	1.810667	1.985594	0.879748	1.695375
0.787726	0.566944	0.578722	0.778188	0.426011	0.760023	0.340765	0.331901	1.137893	1.213428	1.321063	1.331772	1.401363	1.310669	0.57188	0.819334
0.985993	1.389084	0.987175	1.100868	0.73515	1.233779	0.719544	1.148134	1.271972	1.365271	1.470158	1.584304	0.694296	0.333902	-0.00214799999999993	-0.238671
1.065732	1.316484	1.002046	1.093958	0.880723	1.504275	0.869259	1.400224	0.863424	0.5387	1.125408	0.846046	1.143243	0.834676	0.260403	0.188267
0.974045	1.245873	0.90459	1.04322	0.834421	1.489289	0.830067	1.17869	0.823965	0.488086	1.058822	0.638927	1.479555	1.379359	0.462065	0.665252
0.72316	0.37094	0.582111	0.760554	0.872317	1.440394	0.790104	1.136474	0.692464	0.130072	0.861356	0.187811	1.738056	1.771417	0.717976	1.092801
0.903768	1.285531	1.084532	1.026319	0.797768	1.305446	0.697916	0.871836	0.679701	0.017245	0.873045	0.306987	1.840844	1.796342	0.75679	1.236666
0.69274	0.580924	0.731504	0.792318	0.973459	1.497526	0.849023	1.285376	0.518989	-0.411861	0.697317	-0.0311	1.472537	1.304029	0.446055	0.602006
1.087183	1.85757	1.492509	1.344434	1.191038	2.022869	1.177196	1.921459	0.560085	-0.209085	0.801389	-0.078574	1.530896	1.31761	0.547068	0.713064
0.903768	1.157267	1.092098	0.992534	1.230007	1.978005	1.223047	2.03331	1.443186	1.270554	1.721154	1.570545	1.231234	0.80597	0.297379	-0.00438700000000003
0.85174	1.033333	1.004076	0.81925	0.962142	1.531232	0.987024	1.514698	1.056741	0.558685	1.2663	0.660781	1.051591	0.535218	0.212571	-0.0186499999999999
0.839556	0.448555	0.838856	0.651442	0.88778	1.49606	0.94738	1.358541	1.443186	1.219404	1.721154	1.4452	1.537855	1.157763	0.539661	0.585315
1.040647	1.366963	1.216789	0.825746	0.627886	0.803337	0.632143	0.726167	1.21417	0.782779	1.34575	1.021032	1.084643	0.676484	0.15956	-0.367772
0.790659	0.486381	0.907012	0.631239	0.889121	1.325247	0.980681	1.371535	1.27755	0.853186	1.337416	0.997215	0.81634	0.207049	-0.050636	-0.657568
1.050205	1.438917	1.331484	1.011428	0.663068	0.818469	0.599878	0.508482	1.012617	0.293502	1.082785	0.422082	0.375617	-0.396378	-0.376605	-1.26091
0.836608	0.747334	1.037798	0.729373	0.897512	1.2483	0.928574	1.229257	1.208763	0.751584	1.258494	0.745827	1.201782	0.868769	0.176119	-0.015899
0.744611	0.498495	0.810142	0.515481	0.931239	1.24801	0.947737	1.402768	1.80373	1.831421	1.835174	1.642954	1.388442	1.083187	0.331152	0.18971
0.606043	0.25188	0.66878	0.412511	0.997193	1.430657	1.000297	1.371535	1.076607	0.426985	1.166903	0.484357	1.367088	1.041292	0.314891	0.315838
0.667814	0.563031	0.810142	0.572953	1.063145	1.451962	1.098494	1.553555	1.869161	2.050746	2.058273	2.065277	1.808457	1.734877	0.594427	0.883937
0.642814	0.460703	0.855936	0.520402	1.210531	1.754127	1.294952	2.000038	1.328613	0.853186	1.453832	1.038427	1.0217	0.609909	0.00406300000000004	-0.320428
0.861391	0.989709	1.110577	0.792542	1.155445	1.686633	1.229865	1.768873	1.21417	0.702056	1.404301	1.00807	1.407034	1.09267	0.308041	0.253254
0.870841	0.733264	0.994593	0.698804	1.493987	2.242689	1.649068	2.627558	1.502451	1.177337	1.715689	1.45982	1.261013	0.895607	0.197615	-0.242743
0.864781	0.537545	0.863201	0.66231	1.139333	1.568086	1.250086	1.724026	1.680339	1.578595	1.966597	1.70264	1.512954	1.235789	0.430013	0.235149
0.667236	0.238766	0.738651	0.384154	1.072978	1.532833	1.118397	1.385163	1.543933	1.260803	1.803384	1.416457	1.884891	1.706854	0.772396	0.889877
0.837083	0.758435	1.116505	0.724509	1.006621	1.404997	1.15147	1.345784	1.262237	0.49713	1.425781	0.772004	1.689484	1.314568	0.609087	0.570957
0.824904	0.460703	1.017054	0.630185	1.25644	1.774782	1.39517	1.949567	1.192628	0.312316	1.350044	0.525833	1.669129	1.235789	0.694727	0.524167
0.996827	1.077981	1.411309	0.889546	0.913348	1.027761	0.900892	0.898746	1.210625	0.424694	1.48488	0.89371	2.313736	2.188172	1.044592	1.477394
0.876897	0.576625	1.133285	0.695674	1.066374	1.374891	1.09194	1.217931	1.15319	0.30161	1.433933	0.781268	2.106259	1.795788	0.928436	1.082748
1.069529	1.04921	1.525418	1.032565	1.061493	1.226841	1.012982	1.122093	1.180429	0.476626	1.59293	0.865012	1.428008	0.814964	0.382537	-0.150662
0.944104	0.769573	1.313952	0.794167	1.108846	1.432392	1.137976	1.316701	1.138227	0.425368	1.509004	0.748887	1.552802	1.060492	0.515346	0.251349
0.775261	0.251802	1.028372	0.595648	1.191038	1.551402	1.255601	1.514698	0.977649	-0.079402	1.215966	0.14065	1.021002	0.317996	0.084636	-0.586359
0.674052	0.186695	0.890013	0.445998	1.11034	1.493758	1.222483	1.376798	1.313673	0.682205	1.504986	0.869509	1.839486	1.417069	0.679126	0.697773
0.88841	1.180412	1.379894	0.693064	0.963311	1.16378	1.05293	1.042513	1.069076	0.333703	1.295624	0.411491	1.350151	0.707647	0.335856	-0.0210940000000001
0.680285	0.408061	1.062045	0.508123	1.016769	1.226765	1.144257	1.17869	1.505879	1.330463	1.802974	1.373195	0.973413	0.154486	0.071538	-0.515256
0.867025	1.156047	1.525758	0.795532	1.060923	1.31126	1.092178	1.229257	1.653193	1.373016	1.774483	1.490513	1.308428	0.691041	0.252208	-0.079924
0.686515	0.615737	1.209176	0.54492	1.123349	1.603766	1.306481	1.570234	1.466941	1.201557	1.658386	1.358043	1.969639	1.685986	0.864876	1.212607
0.616045	0.134938	0.827211	0.408579	1.060923	1.36025	1.183255	1.340586	1.823491	2.080249	2.064824	2.218773	1.808457	1.398638	0.640729	0.819334
0.566937	0.381537	0.91674	0.420926	1.069107	1.31126	1.209235	1.451842	1.816303	2.051532	2.117084	2.335869	1.806866	1.479267	0.718012	0.760924
0.526471	-0.231723	0.530263	0.155507	1.200224	1.639699	1.423533	1.859829	1.192628	0.827361	1.366872	1.159264	2.28632	2.18578	1.135664	1.716271
0.926091	0.91942	1.223186	0.716916	1.114399	1.508361	1.378738	1.70394	1.368197	1.260803	1.585038	1.458787	1.135784	0.45325	0.313674	-0.2256
0.658119	-0.037463	0.714269	0.33019	0.854069	0.979612	1.078918	1.024039	2.050812	2.573245	2.233069	2.716383	1.630702	1.263152	0.663576	0.442916
0.73524	0.356388	1.035829	0.575585	0.907432	0.985751	1.013302	1.051564	1.501129	1.390379	1.684744	1.595813	1.499022	0.890648	0.515346	0.139192
0.957318	0.826037	1.370474	0.829364	1.07705	1.348832	1.256511	1.5239	1.875294	2.044367	2.018745	2.287035	1.617015	1.146151	0.671335	0.41124
0.935685	0.979421	1.427736	0.870191	0.992037	1.105778	1.078817	1.15609	1.661035	1.777333	1.888933	2.030336	2.341599	2.215834	1.20145	1.449807
0.663966	0.173301	0.877835	0.47265	1.392904	1.902044	1.551517	2.097803	1.091782	0.674717	1.274641	0.961184	2.464459	2.240119	1.309958	1.670843
0.812708	0.646033	0.968153	0.526432	1.338429	1.832083	1.459924	1.796087	1.335479	1.173536	1.561345	1.259849	2.118928	1.859311	1.037152	1.236666
0.505886	-0.300672	0.641195	0.23845	0.99931	1.219773	1.105169	1.076639	1.934733	2.298484	2.183954	2.412648	2.400079	2.266292	1.241254	1.546823
0.871825	1.013421	1.345344	0.701723	1.260664	1.822612	1.426651	1.760986	1.410845	1.373406	1.652079	1.289688	2.034913	1.553409	0.976313	0.844985
0.419332	-0.261336	0.634196	0.075848	1.4046	2.045425	1.610918	2.170751	1.90264	2.318297	2.222242	2.289212	1.950057	1.463913	0.890612	0.89342
0.710494	0.71098	1.142433	0.521155	0.976528	1.233904	1.098529	1.002859	1.67671	2.082307	2.057296	1.897949	2.002031	1.681861	0.967815	0.889877
0.639365	0.265088	0.848704	0.350847	1.16751	1.60992	1.301877	1.532834	1.216976	0.968538	1.496115	0.869509	1.435055	0.829319	0.569715	-0.037836
0.580836	0.238959	0.865754	0.26355	1.431635	2.293858	1.752345	2.475988	1.380178	1.21765	1.525972	1.024549	2.014924	1.568201	0.951872	0.904788
0.587145	0.357349	0.93126	0.313382	1.125779	1.529843	1.340105	1.546555	0.787833	-0.056441	0.873045	-0.126153	1.852723	1.492576	0.796085	0.63445
0.479458	0.120858	0.785955	0.172106	1.090836	1.523095	1.366075	1.507563	1.081394	0.660824	1.166133	0.577542	2.130981	1.972902	1.005276	1.27931
0.627552	0.19956	0.892565	0.371452	1.001321	1.3188	1.189961	1.203971	1.734679	2.073063	1.833465	1.735057	2.092409	1.758544	0.943517	1.078253
0.661571	0.225753	0.868403	0.325822	1.11034	1.608066	1.372409	1.69333	1.610644	1.772535	1.690956	1.741312	1.658013	1.249481	0.671335	0.427093
0.649071	0.462243	1.086306	0.405098	1.10628	1.53796	1.326853	1.578704	1.521189	1.586756	1.608703	1.686667	1.341344	0.678541	0.453316	-0.083008
0.593449	-0.445848	0.751689	0.242614	0.856857	0.92788	0.882722	0.635642	0.787833	0.271918	0.977297	0.453439	1.404466	0.876387	0.460646	0.026813
0.849246	0.671452	1.338272	0.610205	0.973459	1.112981	0.987325	0.898746	1.096193	0.558685	1.115747	0.847099	1.327025	0.695827	0.413942	-0.068955
0.608711	-0.445848	0.831627	0.322273	1.132459	1.319375	1.131218	1.348316	1.325716	1.355823	1.550949	1.494374	1.658013	1.118414	0.694727	0.443453
0.908039	0.553063	1.484455	0.85031	1.108846	1.269865	1.124691	1.235242	1.11105	0.660824	1.245386	1.016197	1.065742	0.150674	0.217963	-0.71819
0.673468	-0.15566	1.108903	0.477988	0.965171	1.01315	0.895585	0.752305	1.301614	1.132171	1.59293	1.619	1.411546	0.742816	0.530787	-0.0714189999999999
0.651872	0.133871	1.182086	0.533087	0.964107	1.005147	0.888341	0.812365	1.419367	1.321758	1.787798	1.759101	1.132081	0.31782	0.319601	-0.57404
0.667236	-0.355085	0.968153	0.449684	0.944419	1.026514	0.822603	0.588276	1.477428	1.347225	1.747784	1.530345	1.561546	0.962077	0.608889	0.0733059999999999
0.947675	0.969178	1.549585	0.876794	0.97239	0.955285	0.855774	0.78553	1.128679	0.527939	1.350044	0.880557	2.336787	2.240119	1.145659	1.401372
0.571912	-0.207328	0.970248	0.406989	1.326785	1.669328	1.334335	1.72806	1.485716	1.168309	1.749757	1.469265	1.800915	1.475426	0.702615	0.477114
0.766072	0.851078	1.289642	0.69873	1.112899	1.255348	0.974032	0.908323	1.368197	0.936066	1.629635	1.159264	2.027698	1.706854	0.959394	1.068196
0.524158	0.343081	1.054618	0.480617	1.019895	1.027761	0.895585	0.838696	1.25337	0.841454	1.598668	0.942557	1.647433	1.314568	0.686911	0.283199
0.530524	0.329868	0.933682	0.447149	1.172125	1.523095	1.202908	1.446779	1.626061	1.525974	1.99213	1.625871	1.777166	1.532376	0.749072	0.475001
0.268271	-0.270741	0.592891	0.167662	1.29623	1.901909	1.391381	1.748886	1.012617	0.3473	1.308444	0.468631	1.821791	1.59452	0.764693	0.667105
0.371256	0.213283	0.768067	0.321654	1.323479	1.920876	1.468872	1.93627	1.245127	0.681029	1.498687	0.815674	1.783877	1.734877	0.834372	1.078253
0.266826	-0.228883	0.668683	0.251063	1.119291	1.409024	1.144337	1.392803	0.954596	0.290453	1.230619	0.220787	1.052824	0.697512	0.237247	-0.032625
0.145504	-0.402315	0.546174	0.173125	1.014783	1.297397	1.014618	1.019068	1.035132	0.590221	1.379119	0.546186	1.68839	1.473156	0.679289	1.011841
0.347038	0.495895	0.869963	0.441085	1.097689	1.429566	1.041522	1.228513	1.147778	0.770951	1.486215	0.849513	1.111063	0.948529	0.19922	0.125996
0.214285	-0.028199	0.716839	0.334133	0.908745	1.056158	0.841082	0.743547	1.026917	0.415655	1.232623	0.528966	0.857724	0.453896	0.0775239999999999	-0.251468
0.268381	0.17839	0.761194	0.412229	0.843372	1.083723	0.802501	0.562315	0.883346	0.284614	1.133579	0.467272	0.946305	0.659704	0.13383	0.00383499999999992
0.407086	0.342971	0.686322	0.449203	1.055917	1.429566	1.009552	1.193018	0.579625	-0.205065	0.866041	0.123141	1.533691	1.56591	0.61125	1.005398
0.537462	0.558915	0.873045	0.662351	0.924043	1.166511	0.841082	0.850268	0.881758	0.404918	1.137962	0.764192	1.239195	1.152895	0.528469	0.677199
0.461881	0.381537	0.941523	0.560101	0.962975	1.070798	0.860385	0.652246	1.26411	1.143408	1.5231	1.144925	0.838064	0.185381	0.529504	0.253254
0.70688	0.897423	1.144267	0.754446	0.839138	0.664127	0.659366	0.213448	0.870845	0.490542	1.206743	0.512829	0.822654	0.081979	0.598614	0.204561
0.591984	0.225744	0.907806	0.526782	1.082392	1.114579	0.919128	0.741388	0.819108	0.469195	1.161405	0.346919	0.946305	0.200652	0.773516	0.220824
0.882707	1.24915	1.381843	0.879471	1.081367	1.174988	0.853638	0.581799	1.213285	1.016258	1.555745	1.078163	0.908286	0.139407	0.666714	0.043425
0.95461	0.904867	1.121636	0.840654	1.31236	1.615351	1.112268	1.131601	0.567666	-0.110168	0.93187	-0.018586	0.727536	-0.168649	0.604788	-0.250008
1.032499	1.501867	1.422214	1.023277	1.1768	1.429551	0.949714	0.818195	0.756012	0.197176	1.152693	0.330024	1.019933	0.387181	0.841149	0.154459
0.930692	0.836818	1.171623	0.828646	1.207614	1.59603	1.09237	1.106423	0.52899	-0.316146	1.013633	0.00894600000000001	0.465992	-0.278856	0.482888	-0.700091
1.068488	0.993966	1.234807	0.88023	1.090836	1.171686	0.851093	0.797127	0.927779	0.573755	1.38356	0.638558	0.735336	0.120377	0.757306	-0.346347
1.469975	1.300955	1.306192	0.970597	1.203047	1.479281	1.059516	1.129929	1.223574	1.11799	1.647093	1.118627	1.004916	0.431128	1.024079	0.0083660000000001
1.444675	1.27021	1.136542	0.853477	0.957991	0.981014	0.824042	0.747161	1.780775	2.281395	2.335643	2.256587	1.22367	0.779975	1.252488	0.315481
1.450277	0.84432	1.037798	0.742813	0.974583	0.982596	0.844338	0.725479	1.373723	1.408755	1.882282	1.493285	2.181517	2.122443	1.971835	1.887919
1.703787	1.389084	1.314989	0.970597	1.435491	1.87089	1.41793	2.050405	1.571843	1.908918	2.114856	1.755636	1.245503	0.638133	1.350057	0.234696
1.604747	1.252247	1.119823	0.73363	1.114399	1.353178	1.046585	1.139067	1.668716	2.044296	2.259809	2.123102	1.535506	1.18954	1.673656	0.811686
1.684516	1.181788	1.056655	0.70331	1.052732	1.276596	1.033687	1.139067	1.63773	2.059188	2.180445	1.84032	1.607144	1.428633	1.687365	1.097275
1.324984	-0.182571	0.413658	0.163596	1.098975	1.255382	1.111691	1.35417	1.672642	2.081551	2.215139	1.934359	0.898279	0.601095	1.203887	0.012287
1.452963	0.979421	0.914855	0.412511	1.211615	1.569137	1.170248	1.50572	1.460309	1.824932	2.112131	1.685	0.898279	0.49846	1.203887	0.171941
1.080364	-0.387605	0.155168	-0.13327	1.343106	1.803954	1.364509	1.987627	0.622081	-0.071273	1.067885	-0.058406	1.119774	0.951068	1.30092	0.426897
1.361499	0.755698	0.788363	0.321752	1.061936	1.200346	1.027847	1.1839	1.308095	1.5362	1.8696	1.2469	1.978319	2.159067	1.832679	1.920565
1.139102	0.251802	0.528887	0.041483	1.270248	1.69932	1.305942	1.737323	1.245127	1.285484	1.744105	1.140524	1.357417	1.385518	1.345115	1.055824
1.238545	0.8585	0.587249	0.140958	1.101765	1.180901	1.086715	1.196071	0.554792	-0.230329	0.945501	-0.190651	1.001662	0.878013	1.0376	0.379831
0.769208	-0.631618	-0.053064	-0.408958	0.901855	0.793552	0.76395	0.499439	1.084365	1.087075	1.563834	0.899316	1.019228	0.900346	0.96242	0.474289
1.197801	0.922224	0.859994	0.395856	1.278181	1.560785	1.196304	1.485645	1.218295	1.167771	1.572179	1.046424	1.895921	2.023467	1.526162	1.981261
0.876164	-0.124567	0.381239	0.020089	0.930994	0.901234	0.83432	0.515087	1.722789	2.367963	2.307994	2.123102	1.32869	1.300675	1.038141	1.05956
1.023612	0.872561	0.945933	0.387812	1.234996	1.562403	1.196188	1.351436	1.325708	1.358613	1.822431	1.363087	0.890642	0.542347	0.62834	0.171941
0.946001	0.549532	0.781961	0.313382	1.03322	0.981014	0.878057	0.678769	1.233022	1.049427	1.715778	0.978648	1.296232	1.148161	0.803202	0.934532
0.694404	0.122289	0.586122	0.146968	1.342606	1.662856	1.228739	1.337895	0.906695	0.286155	1.441055	0.556327	1.874941	1.746618	1.146117	1.622408
0.807581	0.600316	1.056655	0.463189	1.105507	1.056912	0.896164	0.693355	1.138227	0.680856	1.598668	0.753615	1.484652	1.102318	0.856377	0.923181
0.716074	0.459477	1.02095	0.47265	1.420058	1.614713	1.228932	1.335214	1.567478	1.721439	2.155809	1.573969	1.405491	1.022783	0.703107	0.781484
0.716074	0.8585	1.25766	0.57221	1.361793	1.516343	1.137709	1.108885	1.356199	1.015344	1.884322	1.221111	1.899582	1.706854	1.017801	1.568317
0.41669	-0.018486	0.91674	0.321963	1.27993	1.219624	0.902298	0.835378	1.407432	1.144667	2.023855	1.312497	1.361683	0.80597	0.433768	0.363497
0.627695	0.639115	1.224438	0.619259	1.424035	1.544683	1.144227	1.15107	1.280442	0.880461	1.938586	0.947043	1.066498	0.203981	0.230555	-0.301717
0.473475	0.09726	0.948206	0.47265	1.377346	1.304445	1.131212	1.262653	1.49063	1.208498	2.125572	1.38466	0.586347	-0.291498	-0.174692	-1.021449
0.673892	1.05947	1.444726	0.821958	1.388997	1.438274	1.254681	1.451842	1.49063	1.149349	2.015245	1.170596	0.969131	0.152287	0.138261	-0.376992
0.478105	0.098749	0.967485	0.505295	1.412264	1.558116	1.351819	1.56542	1.726678	1.576255	2.125572	1.339547	1.618776	1.060492	0.548169	0.651729
0.635879	1.017328	1.453972	0.815441	1.168104	1.057863	1.040646	0.976712	1.88054	1.793063	2.222139	1.68758	2.085666	1.758544	0.941548	1.380959
0.428036	0.444996	1.236307	0.633432	1.188193	1.29722	1.196218	1.246499	1.730517	1.344106	1.996196	1.359141	2.015937	1.620755	0.872145	1.40884
0.510154	0.419373	1.027544	0.595648	1.300173	1.465632	1.299552	1.462082	1.761308	1.446479	2.127598	1.423464	1.864014	1.446464	0.748973	1.121823
0.447414	0.074418	0.80214	0.40468	1.258336	1.297397	1.228533	1.36797	1.32939	0.692682	1.600355	0.658338	1.563349	1.064784	0.44778	0.506428
0.336482	0.112634	0.843048	0.433657	1.007674	0.934326	0.971016	0.8468	1.338719	0.566601	1.55152	0.80441	1.698942	1.259809	0.471778	0.711244
0.169788	-0.386552	0.63492	0.271907	1.366305	1.694155	1.459518	1.806517	1.609851	1.259652	1.842875	1.314418	1.177479	0.505246	0.094237	0.031353
0.33416	0.432169	0.968106	0.519755	0.956023	0.833412	0.870126	0.613154	1.439284	0.840925	1.519169	1.144925	0.662429	0.0155879999999999	-0.174781	-0.679863
0.079063	-0.268173	0.655918	0.189605	0.84081	0.680275	0.786866	0.464152	1.09862	0.286035	1.252503	0.739176	0.991703	0.579066	0.004938	0.114031
0.120398	-0.078144	0.757705	0.288607	0.992047	0.988386	0.910439	0.706355	1.292893	0.870808	1.366028	1.118148	1.246486	0.931214	0.237356	0.599523
0.154004	0.319086	0.899869	0.399929	0.84928	0.828625	0.731023	0.476319	1.369416	0.880753	1.305663	1.158166	0.787818	0.342054	-0.072016	-0.029567
0.03757	0.078863	0.812042	0.276756	0.888178	0.960947	0.808551	0.620871	0.888463	0.24885	0.828021	0.494499	0.603253	0.224718	-0.276988	-0.47967
0.08583	0.267852	0.842487	0.35059	0.838292	0.946056	0.808551	0.61701	0.796275	0.104413	0.683029	0.329699	0.013213	-0.470214	-0.643628	-1.119045
0.099725	-0.011043	0.771453	0.399998	0.857742	0.980976	0.809906	0.484455	0.770154	0.0448270000000001	0.633372	0.358197	0.961464	0.691041	0.050627	0.364668
0.428873	1.049208	1.354413	0.815071	0.779843	0.750764	0.57894	0.173861	0.781756	0.00836099999999995	0.508395	0.44916	0.754934	0.609909	0.0338349999999999	0.191468
0.175783	0.356068	0.97787	0.557158	0.823076	0.91857	0.701449	0.331773	0.665812	-0.134876	0.383431	0.261082	0.546369	0.296686	-0.111902	-0.246823
0.478118	0.924438	1.385549	1.001736	0.79081	0.735421	0.552982	0.063856	1.195807	0.81237	0.883619	1.35059	0.704714	0.497916	-0.020393	0.00383499999999992
0.286093	0.217934	0.906731	0.684215	0.699417	0.73094	0.522033	0.003024	1.169714	0.967726	0.879001	1.310271	0.863208	0.647298	0.094237	0.0340809999999999
0.319985	0.533497	1.139293	0.905064	0.795078	0.958705	0.597925	0.327513	0.807778	0.0217149999999999	0.308123	0.472711	0.786011	0.645902	0.073488	-0.056079
0.388696	0.458342	1.139293	0.938098	0.671187	0.783009	0.448864	0.024071	0.703773	-0.0513210000000001	0.298242	0.398149	0.991703	0.78603	0.204454	0.272592
0.223891	0.205958	1.018316	0.803055	0.796928	1.118564	0.604871	0.371069	0.923144	0.259991	0.468619	0.89452	1.044345	0.929126	0.248569	0.380621
0.271088	0.546165	1.28338	0.978405	0.53674	0.660496	0.368143	0.038031	0.689823	-0.123458	0.203385	0.323987	0.421305	-0.0526639999999999	-0.237826	-0.543816
0.203174	0.205958	1.065777	0.866371	0.790286	1.228917	0.592858	0.632485	0.767471	0.115841	0.388449	0.683856	0.52764	0.203224	-0.149009	-0.299997
0.071973	-0.243927	0.764767	0.655553	0.580278	0.978881	0.446259	0.296715	1.050213	0.533115	0.608503	1.180843	1.228782	1.02276	0.318975	0.599367
-0.00350200000000001	-0.173312	0.69673	0.582449	0.506438	0.921464	0.458135	0.283793	1.296005	1.268819	0.824816	1.541517	1.215562	1.14329	0.374294	0.768895
0.237173	-0.034177	0.896792	0.73664	0.438612	0.721818	0.282573	0.010138	0.947868	0.560138	0.493614	1.006003	1.044363	0.829081	0.289471	0.445228
0.07229	-0.543574	0.703402	0.566749	0.591023	0.926879	0.503078	0.503439	1.782826	2.310241	1.418099	2.713246	0.67683	0.490404	0.071289	0.023807
0.223891	0.180195	0.951316	0.745765	0.34762	0.586877	0.23738	-0.069943	1.693165	2.156277	1.312968	2.42246	1.353847	1.371716	0.502775	1.049473
0.21806	-0.230227	0.883894	0.752057	0.781737	1.409429	0.801766	1.18997	1.338413	1.437702	0.871472	1.567752	0.916743	0.705572	0.194393	0.179588
0.375673	0.305739	1.022804	0.879593	0.762262	1.458799	0.698256	1.031873	1.350329	1.250482	0.905487	1.65681	1.087179	1.074458	0.354276	0.568436
0.031213	-0.728069	0.563432	0.46388	0.60179	1.191841	0.577051	0.818195	0.691138	0.107057	0.167138	0.394168	0.405032	0.213716	-0.094311	-0.357448
0.33416	0.394652	1.191914	0.992167	0.606177	1.191841	0.603036	0.82527	1.013456	0.753781	0.569017	1.163582	1.116897	1.130087	0.409662	0.615023
0.086209	-0.495226	0.580663	0.509695	0.805458	1.556788	0.750067	1.261091	1.115876	0.919243	0.679188	1.204205	0.346793	0.1984	-0.157492	-0.497291
0.36797	0.823824	1.239609	0.946647	0.48062	0.96041	0.436931	0.420697	0.846293	0.371984	0.333131	0.770138	0.778253	0.736652	0.106882	0.0837640000000001
-0.010212	-0.803634	0.450925	0.489423	0.874641	1.829933	0.94186	1.663644	0.898351	0.469195	0.333131	0.643085	0.918892	1.078738	0.23877	0.459139
0.326547	0.546138	0.9919	0.896348	0.634453	1.353292	0.673936	0.864207	1.350329	1.406278	0.9211	1.738779	1.11236	1.314568	0.291735	0.568436
-0.065385	-0.635582	0.397034	0.46388	0.58468	1.269208	0.673936	0.864207	0.897163	0.656862	0.523932	0.911151	1.267557	1.59452	0.408608	0.911398
-0.086039	-0.581196	0.414429	0.46388	0.725331	1.493758	0.788178	1.296692	0.418923	-0.425146	-0.17679	-0.127574	0.596486	0.782743	-0.065241	-0.089709
-0.361739	-1.386244	0.012622	0.163252	0.53674	1.078716	0.524996	0.597784	1.233959	1.250482	0.831035	1.608789	1.014339	1.31171	0.220805	0.379831
0.120398	0.154369	0.744191	0.742813	0.740494	1.486958	0.743234	1.038319	0.418923	-0.376711	-0.090959	0.075544	1.465128	1.909913	0.532324	1.128623
-0.334724	-1.443464	-0.040959	0.150385	0.647307	1.191448	0.601247	0.850268	1.014929	0.810979	0.534893	1.302271	1.414829	1.745651	0.454888	0.973184
0.300267	0.305739	0.975134	0.987643	0.662489	1.212575	0.556125	0.672531	0.432104	-0.157502	0.05439	0.386172	1.187986	1.349717	0.235794	0.600009
0.024399	-0.646005	0.444518	0.6743	0.866196	1.627997	0.864489	1.261091	0.587704	-0.013054	0.120996	0.750678	0.5739	0.613934	-0.180049	-0.397592
-0.01686	-0.560074	0.522343	0.734202	1.048867	1.939738	1.074968	1.654138	0.705322	0.170535	0.171167	0.869148	1.064822	1.246401	0.149577	0.379831
0.066344	-0.549394	0.570015	0.847781	0.851836	1.552956	0.75279	0.986421	1.260051	1.268819	0.810829	1.820888	0.515421	0.446903	-0.211927	-0.509528
0.335286	0.520909	1.134912	1.185402	1.113982	2.065869	1.132531	1.911929	0.640416	0.084253	0.11055	0.658804	0.915904	0.976207	0.086417	-0.015899
-0.0376379999999999	-0.728069	0.433545	0.692867	0.795078	1.41084	0.75279	0.911477	1.121142	0.918868	0.611017	1.553418	1.289004	1.222073	0.352077	0.584484
0.141645	-0.071799	0.832402	1.021391	0.871323	1.432392	0.75279	0.986421	0.993427	0.682471	0.505548	1.245015	1.278234	1.300979	0.290441	0.615504
0.286093	0.37007	1.106139	1.244448	0.818825	1.381808	0.708989	0.814669	0.757578	-0.013054	0.156144	0.627878	1.825379	2.099792	0.71022	1.39721
0.065894	-0.008059	0.808654	0.903373	0.757973	1.227021	0.594296	0.644643	0.549329	-0.473532	-0.056086	0.2093	1.574833	1.693881	0.640252	1.198276
0.108001	-0.290549	0.628264	0.862398	0.99071	1.641263	0.901694	1.222531	0.965656	0.3393	0.393775	0.919474	1.111063	0.952309	0.219347	0.331882
0.142982	-0.112922	0.63492	0.864954	0.84928	1.255382	0.7036	0.867708	0.731443	0.024056	0.272516	0.663787	1.708799	1.859177	0.71022	1.307621
-0.044035	-0.690241	0.422567	0.694124	1.011408	1.651651	0.916097	1.2436	0.314859	-1.049578	-0.253588	-0.322212	1.27095	1.15648	0.438038	0.758773
0.325997	0.50839	0.96994	1.182069	0.918633	1.569137	0.876858	1.125263	0.887167	0.136793	0.398769	0.740983	1.976917	1.948111	0.911912	1.824988
0.0538839999999999	-0.30609	0.566005	0.797761	0.944934	1.611671	0.908403	1.18997	1.041007	0.496684	0.639883	1.051553	1.325222	1.070349	0.384428	0.600009
-0.064675	-0.355027	0.559362	0.697146	0.961611	1.610459	0.819546	1.057826	0.884748	-0.00145099999999998	0.333253	0.597286	1.791893	1.948111	0.741233	1.586866
0.0335000000000001	-0.268173	0.442044	0.66511	1.106877	1.833971	0.998324	1.381977	1.397833	1.143408	1.067085	1.701197	2.028369	2.175954	0.888098	1.864286
0.291815	0.192167	0.744096	1.006707	1.06002	1.599756	0.726756	0.963867	1.369626	0.840925	0.89129	1.407836	1.754528	1.655817	0.710265	1.349912
-0.05745	-0.926637	0.167456	0.602458	1.095727	1.719354	0.75279	1.112675	1.383702	0.89928	0.942157	1.556986	1.71741	1.566602	0.617573	1.037814
0.257548	0.331327	0.912147	1.083979	1.032058	1.669454	0.682973	0.903073	0.920799	-0.157502	0.45837	0.627878	1.623237	1.503853	0.587064	0.911398
0.369634	0.457825	1.203156	1.298804	0.985135	1.45289	0.52628	0.593955	1.470978	0.89928	1.069438	1.649861	1.187986	0.824125	0.284939	0.222262
0.369634	0.243638	1.090154	1.281862	1.244906	1.892383	0.887317	1.293809	1.025725	0.064864	0.588465	0.782125	1.806774	1.693881	0.764358	1.193944
0.509305	0.772713	1.421311	1.520386	1.11805	1.724049	0.75152	0.921546	1.35775	0.545609	0.90668	1.306251	1.63941	1.41036	0.60186	0.711244
0.703635	1.457771	1.679018	1.690799	1.144514	1.70855	0.629263	0.889316	1.001169	-0.340524	0.488682	0.607677	2.32739	2.333664	1.19688	1.811849
0.666206	1.277332	1.695407	1.689874	1.462419	2.143692	1.015601	1.508276	1.266574	0.240673	0.821735	0.966361	2.16222	2.066784	1.09761	1.443009
0.643717	1.181083	1.728447	1.724022	1.528555	2.217429	1.001366	1.41563	1.901846	1.384995	1.567757	2.390839	2.034213	1.770059	0.920137	0.9567
0.802903	1.503838	2.038226	1.897811	1.56185	2.122797	0.973486	1.264186	1.196417	0.019206	0.884425	1.137511	1.780886	1.349302	0.805319	0.548332
0.74448	1.351766	1.96787	1.707186	1.744837	2.305399	1.02621	1.468497	1.726773	0.490092	1.215375	1.647766	2.16944	1.797057	1.18687	1.084214
0.893585	1.722134	2.399307	2.054426	1.817577	2.371295	1.211438	1.722026	1.286434	-0.664472	0.764815	0.532741	2.546333	2.298948	1.394703	1.727527
1.133597	2.148401	2.795552	2.349648	2.034355	2.598398	1.273532	1.827743	1.321771	-0.391553	1.212133	1.220837	2.563778	2.328521	1.294867	1.502171
0.929025	1.57974	2.608552	2.203812	2.196006	2.646171	1.196359	1.695253	0.96355	-1.222754	0.959439	0.508076	2.819034	2.778026	1.564222	1.981272
0.635828	0.929779	2.435948	1.972306	2.302258	2.671201	1.217663	1.956496	1.65343	0.30965	1.740151	1.750259	3.145522	3.427041	1.723826	2.426187
0.520234	0.355735	2.243526	1.822834	2.370098	2.747193	1.250869	1.918309	1.585409	-0.015297	1.513965	1.359754	3.192194	3.366098	1.715824	2.581105
0.685803	0.525588	2.28798	1.969591	2.17992	2.397209	1.067654	1.42462	1.830314	0.455876	1.858155	1.514852	3.04397	3.034505	1.605521	2.308853
0.128635	-1.263917	1.393208	1.098809	2.708943	3.604776	1.783679	2.883591	1.693618	0.00590199999999996	1.561943	0.9909	3.280999	3.368338	1.811039	2.959976
0.574523	0.548236	2.134546	1.677871	2.2815	2.70786	1.402418	2.054726	2.521612	1.710706	2.466546	2.606107	3.181088	3.418208	1.800409	2.828181
0.309467	-0.560378	1.697497	1.303258	2.304553	2.739631	1.432933	2.174816	1.873427	0.429505	1.687388	1.199549	1.787567	1.588052	0.869626	0.961517
0.451525	0.022045	1.901057	1.534198	2.232303	2.750214	1.450888	2.026806	2.223221	1.1459	2.123995	1.861996	1.872543	1.692232	0.83737	1.084214
0.208711	-0.921984	1.435243	1.115799	2.229947	2.789795	1.488408	1.991538	2.24028	1.155195	2.134803	1.903138	2.438491	2.755769	1.266768	2.292838
0.631177	0.789612	2.060958	1.581677	1.873605	2.000397	1.125095	1.145207	2.26214	1.352996	2.158755	2.321239	1.596093	1.743878	0.710862	1.073117
0.185869	-0.932226	1.248746	0.986178	2.207743	2.745657	1.556763	2.225719	1.85649	0.552891	1.4907	1.306251	2.49422	3.110117	1.397003	2.462595
0.729351	0.866561	2.16565	1.626969	1.875955	2.184358	1.215622	1.446779	2.667023	2.558522	2.467963	2.99684	2.085526	2.566175	1.117723	2.170274
0.406429	-0.368236	1.557713	1.252851	2.003822	2.442904	1.280034	1.592338	2.135739	1.411359	1.911327	2.156039	1.019933	1.048665	0.413191	0.619007
0.707928	0.816886	2.101112	1.586705	1.955796	2.425508	1.260687	1.490574	1.837674	0.840203	1.56779	1.728791	1.212771	1.279328	0.514911	0.826747
0.163246	-0.904323	1.216789	0.957097	1.778348	2.241693	1.048635	1.156967	1.653136	0.535099	1.317239	1.355205	1.470591	1.782583	0.788407	1.270548
0.534662	0.736167	2.001989	1.484732	2.06276	2.850108	1.414682	1.861818	1.211884	-0.352708	0.753727	0.551387	1.361683	1.537597	0.608889	1.01563
0.355201	-0.210781	1.533282	1.22911	2.069703	2.763721	1.414344	1.833857	1.13331	-0.656898	0.578746	0.337014	2.34675	2.972019	1.455871	2.882437
0.747899	1.080112	2.132411	1.769902	1.829401	2.26402	1.02279	1.045619	1.369416	-0.132131	0.851249	0.772596	1.91933	2.465078	1.130968	2.183666
0.374726	-0.11621	1.484809	1.299002	2.128175	2.897496	1.241513	1.651785	0.615641	-1.762822	0.115775	-0.505086	1.103652	1.172011	0.468048	0.586496
0.325576	-0.08982	1.444136	1.217219	2.055812	2.818815	1.23507	1.572656	0.954798	-1.01975	0.504873	0.187811	1.547053	1.757195	0.882268	1.270548
0.643717	0.951516	2.085428	1.68366	1.910579	2.368425	0.945872	0.979941	1.018053	-0.659558	0.630271	0.334113	1.503071	1.653196	0.733813	1.01563
0.53919	0.381601	1.90706	1.62	1.897657	2.416356	0.886421	0.884933	1.393192	0.049954	1.051458	1.199549	2.270896	2.715551	1.28839	2.268174
0.57959	0.672099	2.019171	1.741316	1.958626	2.462493	0.861335	0.970276	1.53347	0.230584	1.214997	1.377007	2.130185	2.531323	1.25573	2.208437
0.340367	0.204225	1.800971	1.510378	1.911891	2.374748	0.796821	0.898148	1.457508	0.098978	1.136836	1.241008	1.598094	1.861837	0.828275	1.208117
0.57959	1.386866	2.429238	2.000661	2.066084	2.787489	0.996917	1.309915	1.221913	-0.279695	0.984227	0.832717	2.047103	2.484629	1.188583	2.000788
0.425813	0.571308	2.019171	1.810876	2.014034	2.539437	0.821788	1.111866	1.521752	0.366532	1.336358	1.414655	1.695198	1.860845	0.899032	1.174305
0.628614	1.410557	2.41111	2.069126	1.911891	2.403978	0.777581	0.937466	1.378849	-0.047946	1.136836	1.066828	1.886394	2.22826	1.018525	1.608917
0.241853	0.015088	1.622627	1.470233	1.934554	2.572301	0.880592	1.268241	1.597569	0.426383	1.311849	1.45982	1.70034	2.043846	0.892388	1.256359
0.505029	0.723032	1.946098	1.758617	1.960709	2.652309	0.984316	1.536631	1.288341	-0.059602	1.026746	0.818605	1.637375	2.054392	0.852617	1.250904
0.0599680000000001	-0.679758	1.25766	1.262316	1.597722	1.915692	0.475793	0.356472	1.609199	0.692682	1.356614	1.422146	1.913601	2.24431	1.024644	1.620882
0.320755	0.420057	1.622691	1.438064	1.720231	2.178381	0.689854	0.885894	0.871198	-1.181128	0.453757	-0.064857	1.398387	1.614303	0.600929	0.871766
0.116317	-0.124347	1.429081	1.119194	1.581546	1.961938	0.491893	0.558433	1.240211	-0.436063	0.787919	0.486011	1.703808	2.331028	0.843544	1.458421
0.031743	-0.124347	1.194052	1.02723	1.562158	1.860889	0.584015	0.683756	1.301929	-0.207211	0.946732	0.794591	1.7815	2.390701	1.006257	1.701657
0.038536	-0.581196	1.09752	1.097124	1.416463	1.677954	0.489019	0.432992	1.402992	0.152511	1.116149	1.086877	1.572834	2.010791	0.811421	1.37314
0.179203	0.142486	1.324972	1.185402	1.232925	1.445121	0.266274	0.068458	1.250398	0.033278	0.957651	0.947082	0.946305	1.263152	0.327732	0.630494
0.113966	0.458342	1.566944	1.210735	1.298561	1.542172	0.396616	0.371069	1.815918	1.160716	1.391405	1.769305	1.224595	1.683038	0.515859	1.093319
-0.310159	-0.57493	1.0371	0.857633	1.176856	1.283313	0.19355	-0.062103	1.47147	0.363186	0.914372	1.038211	0.792065	0.957425	0.128112	0.260815
-0.303064	-0.761441	0.893804	0.845546	1.057082	0.994339	0.024874	-0.417188	1.657029	0.960061	1.125098	1.5468	1.168655	1.425473	0.37741	0.92124
-0.388129	-1.114161	0.819136	0.767998	1.313796	1.606424	0.384847	0.331773	1.759005	1.14114	1.255709	1.900415	1.311009	1.697402	0.539661	1.336369
0.0288959999999999	0.294857	1.487322	1.339218	1.248898	1.416912	0.174706	-0.001683	1.759005	1.198416	1.275673	2.018415	0.834193	1.064784	0.275398	0.661211
-0.352764	-0.748622	1.068257	0.971273	1.485653	2.078125	0.594786	0.797054	1.596902	0.968421	1.162712	1.806361	1.141974	1.668849	0.531222	1.279686
0.052106	0.508223	1.807433	1.495602	1.188026	1.346651	0.122409	-0.221512	1.270865	0.319169	0.842007	1.374975	0.820655	1.222073	0.234413	0.677199
0.145794	0.444987	1.863957	1.621005	1.217661	1.43923	0.138223	-0.276702	1.005809	-0.15921	0.593321	0.815674	1.648459	2.075061	0.889185	1.715047
0.281394	0.810599	1.968064	1.724149	1.366603	1.638427	0.225643	0.050067	1.375197	0.452861	0.908324	1.403951	1.310672	1.719045	0.624586	1.298088
0.23177	0.672099	1.968064	1.735615	1.462552	1.728107	0.266274	0.143204	1.085369	-0.12198	0.614898	0.992784	2.015416	2.655389	1.234006	2.413229
0.354517	1.239236	2.185967	1.884534	1.53528	1.806912	0.365722	0.424791	1.159585	-0.00327	0.758447	1.195756	1.491675	2.052777	0.812373	1.47815
0.206964	0.419576	1.897443	1.643341	1.554801	1.946889	0.406348	0.475545	1.822017	1.32661	1.438296	2.32604	1.881563	2.44978	1.039532	1.885777
0.330565	0.254372	1.914407	1.752947	1.582243	1.787421	0.332398	0.316633	1.405156	0.598021	1.129846	1.519423	1.493576	1.809077	0.69571	1.222403
0.530197	1.173389	2.395809	2.154651	1.454834	1.46547	0.193093	0.040166	1.977191	1.587631	1.761832	2.745291	1.31868	1.405457	0.632653	0.904788
0.404685	0.609904	2.036503	1.925965	1.427725	1.428151	0.226833	0.018013	1.917582	1.357353	1.685288	2.447691	1.544808	1.692119	0.845855	1.284715
0.58581	1.329758	2.416908	2.191781	1.655362	1.911895	0.461681	0.51901	1.690175	0.967892	1.518972	2.01545	1.635484	1.756868	0.814448	1.284715
0.232422	0.432169	1.963207	1.770284	1.644187	1.95082	0.402026	0.356472	1.293939	0.024056	1.013267	1.066828	1.432751	1.431086	0.593416	0.908313
0.337087	0.697028	2.042009	1.90218	1.701782	1.963233	0.512249	0.72908	1.78789	1.006597	1.604212	2.150726	2.014846	2.237385	1.084093	1.587589
0.230484	0.482934	1.905906	1.793236	1.639898	2.004394	0.603106	0.764838	1.534502	0.350205	1.311849	1.594736	1.547053	1.589366	0.774612	0.964171
0.660789	1.606617	2.407745	2.220339	1.535838	1.841742	0.571655	0.621966	1.447441	0.268434	1.213544	1.327898	2.583004	3.07135	1.520645	2.604763
0.100245	-0.218826	1.468458	1.429495	1.601478	1.95082	0.622332	0.83299	1.951294	1.162147	1.830317	2.238569	2.143232	2.593497	1.208834	2.09972
0.369621	0.899865	1.929136	1.706769	1.500948	1.911895	0.597805	0.764838	1.959075	1.33567	1.954224	2.415453	1.751545	2.156849	0.90965	1.422747
-0.152228	-0.831244	1.02305	1.007664	1.781164	2.540519	1.074968	1.730467	1.566955	0.695036	1.515402	1.612328	1.957945	2.396115	1.128294	1.803676
0.339458	0.571308	1.75957	1.712502	1.7276	2.379591	0.934239	1.475084	2.250403	2.295866	2.373155	3.122479	1.939035	2.369488	1.03342	1.816849
-0.0170039999999998	-0.587252	1.210668	1.239737	1.470111	1.895749	0.684503	0.850268	2.06623	1.67022	2.141327	2.752426	1.667936	2.105676	0.862026	1.532303
0.0678949999999999	-0.037237	1.340258	1.315088	1.485478	2.069891	0.788178	1.148274	2.293817	2.261366	2.343005	3.042242	1.2492	1.565205	0.514281	0.881519
-0.0170039999999998	-0.707201	0.98202	1.076581	1.718982	2.465558	0.935179	1.513417	1.926767	1.71024	2.053496	2.504291	1.307083	1.667876	0.522223	1.099579
0.374022	0.88873	1.767778	1.712502	1.909557	2.87095	1.127385	1.922133	1.257272	0.175163	1.242684	1.163582	2.015937	2.531845	1.015946	2.057893
-0.0677230000000001	-0.652384	0.919291	1.074736	1.776025	2.688322	1.101784	1.880195	2.037117	1.864057	2.077307	2.793533	1.67654	2.154814	0.758067	1.539383
0.131034	0.343655	1.509963	1.489414	1.328544	1.743529	0.48198	0.483489	1.671016	1.045206	1.58834	1.91861	2.060246	2.855717	1.117723	2.401688
0.102862	-0.04884	1.340258	1.396609	1.653913	2.373869	0.884683	1.365193	0.965096	-0.519468	0.791429	0.486011	1.100526	1.550815	0.372872	0.756983
0.317901	0.26669	1.476861	1.597191	1.696229	2.391065	0.865638	1.36797	1.041358	-0.15921	0.85132	0.602428	1.671631	2.167053	0.781161	1.553063
0.0611279999999998	-0.203659	1.160741	1.366748	1.278181	1.65381	0.384729	0.182716	1.508693	0.725793	1.342834	1.694367	1.512708	1.821009	0.757621	1.302661
0.225149	0.318062	1.436227	1.533727	1.765034	2.591408	0.974249	1.58987	1.7476	1.19022	1.628441	2.164104	2.06712	2.596996	1.069228	1.963528
0.419332	0.965192	1.963207	1.891819	1.7276	2.558257	0.966709	1.356913	1.332106	0.474341	1.287029	1.326281	1.729161	2.205666	0.828275	1.539383
0.419332	0.699471	1.809359	1.880412	1.861862	2.71355	0.980015	1.584905	1.21977	-0.063061	1.035946	0.974112	2.066684	2.500258	1.110358	1.959301
0.468999	0.825795	1.800971	1.943999	1.827407	2.679279	0.992469	1.582437	1.310119	0.215357	1.127376	1.257087	1.952148	2.437991	1.01719	1.803676
0.198611	-0.00192299999999998	1.386951	1.579185	1.604817	2.24099	0.74865	1.064418	1.510895	0.560138	1.398811	1.523082	2.397847	2.967154	1.340056	2.497079
0.654759	0.976027	2.003411	2.088499	1.578093	2.136471	0.625569	0.764838	1.361378	0.166875	1.16761	1.220022	2.193787	2.488547	1.204954	1.959301
0.384767	0.152494	1.582116	1.654785	1.82016	2.724258	0.998324	1.690028	1.473601	0.5012	1.418907	1.526749	2.263984	2.772066	1.197675	2.054501
0.570904	1.114766	2.156818	2.034507	1.408535	1.851169	0.465773	0.665076	1.508693	0.533115	1.524129	1.589545	1.607144	1.525554	0.687275	0.772174
0.536543	0.724462	1.971818	1.954659	1.65109	2.391065	0.844246	1.362424	1.518212	0.45867	1.512373	1.516012	1.945594	2.102265	0.953783	1.51947
0.704296	1.577044	2.292029	2.142425	1.953229	3.063375	1.178096	2.213072	1.242204	-0.111571	1.158301	0.875396	1.216586	1.100968	0.309553	0.144492
0.397718	0.558915	1.703612	1.724007	1.635218	2.505483	0.781376	1.293809	1.668527	0.660613	1.43987	1.512202	1.32869	1.463913	0.467533	0.677199
0.676422	1.568341	2.309944	2.212767	1.715884	2.711599	0.935179	1.732743	2.019333	1.735334	2.060891	2.467959	1.3897	1.441439	0.522853	0.738441
0.054357	-0.011043	1.420515	1.430969	1.592865	2.442592	0.711987	1.15445	1.617673	0.506482	1.520006	1.630169	1.339591	1.385504	0.396411	0.646409
0.294536	1.073485	1.928128	1.764167	1.197608	1.65821	0.270801	0.160524	1.663726	0.960061	1.672609	1.776199	1.303456	1.387752	0.389022	0.583836
0.053195	0.064642	1.32379	1.338707	1.41669	2.118677	0.517113	0.733935	1.288418	-0.016873	1.116193	0.904116	1.187986	1.260079	0.255345	0.428296
0.230153	0.394652	1.485848	1.569083	1.546697	2.493832	0.656648	0.980592	1.088891	-0.254303	0.914372	0.512829	1.235126	1.541799	0.326741	0.769652
0.073501	-0.495226	1.106865	1.299002	1.481806	2.306514	0.568923	0.878247	1.362567	0.385126	1.317158	1.318573	1.054538	1.2327	0.153236	0.319161
0.440761	0.911034	1.695068	1.758446	1.443836	2.318266	0.691088	1.137967	1.112051	-0.170641	1.109699	1.07361	0.971474	1.066416	0.10635	0.319161
0.058883	-0.710971	0.993959	1.263482	1.340348	2.185725	0.529038	0.750817	1.037495	-0.301786	0.987818	0.764192	0.913532	1.02835	0.05951	0.100259
0.199186	0.571118	1.631044	1.632558	1.14547	1.826145	0.209521	0.200254	1.175556	0.209045	1.244462	1.386938	1.634709	1.948612	0.640094	1.143107
0.149864	0.142486	1.462524	1.506542	1.237671	1.971055	0.325662	0.428889	1.224713	0.279054	1.228916	1.314418	1.122764	1.218977	0.263538	0.380621
0.2632	0.684159	1.622868	1.655329	1.420858	2.284117	0.467437	0.80428	1.212753	0.267891	1.076405	1.2742	1.187986	1.322622	0.326741	0.552683
0.279647	0.394104	1.429081	1.63197	1.57716	2.567601	0.753043	1.272908	1.214047	0.447872	1.187086	1.423464	1.202648	1.374276	0.334866	0.459139
0.477192	0.924438	1.598552	1.781426	1.401738	2.153052	0.568923	0.769094	1.139452	0.223117	1.024953	1.204205	1.692122	2.153021	0.694847	1.283901
0.053195	-0.177156	1.104921	1.394938	1.187149	1.671377	0.266274	0.23991	1.401264	0.882563	1.412513	1.931188	1.415573	1.602503	0.436022	0.709777
0.210262	0.128481	1.420515	1.677871	1.424221	2.20227	0.526995	0.860713	1.014946	-0.111159	0.86202	0.98774	1.41869	1.654842	0.546279	0.926299
0.410648	0.698102	1.743988	1.874438	1.370513	2.088208	0.455929	0.601618	1.092265	-0.0865860000000001	1.022426	1.187337	1.952148	2.384235	0.890612	1.566722
0.395559	0.94895	1.776022	1.925965	1.531399	2.442584	0.725695	1.128429	1.508693	1.180867	1.656559	2.082134	1.491675	1.550815	0.56952	0.741764
0.376112	0.330474	1.606474	1.857559	1.703641	2.824166	0.94186	1.668454	1.294717	0.560138	1.309946	1.45249	1.977542	2.229969	0.898191	1.444555
0.408499	0.859922	1.767778	1.948667	1.496986	2.49948	0.667044	1.125263	1.141914	0.127255	1.149474	1.208441	1.618776	1.524357	0.577294	0.821439
0.427871	0.971088	1.919774	1.948069	1.44726	2.49948	0.711987	1.125263	0.940535	-0.207211	1.07603	0.951707	1.653139	1.718492	0.553915	0.928679
0.335631	0.995428	1.919774	1.971319	1.485478	2.516723	0.769119	1.302479	1.383122	0.667211	1.507633	1.626582	1.800065	1.859258	0.687071	1.037814
0.342159	0.746706	1.743262	1.821723	1.485478	2.488181	0.68608	1.196071	1.294717	0.57068	1.443191	1.541517	2.23179	2.473309	0.937726	1.756192
0.376577	1.273117	1.807433	1.815896	1.37087	2.153052	0.540994	0.846637	0.864916	-0.12301	0.986816	0.658338	1.965243	2.458282	0.874673	1.674816
-0.082959	-0.403677	0.977126	1.129808	1.50465	2.516414	0.866836	1.534327	1.128583	0.293341	1.231396	1.064522	2.022425	2.381395	0.827675	1.627564
0.319029	0.9978	1.687039	1.724049	1.271417	1.986878	0.47709	0.765427	1.770395	1.621882	1.91282	2.305123	1.844045	2.0514	0.632267	1.179569
-0.0409879999999999	-0.165742	0.96994	1.177597	1.100947	1.695804	0.410818	0.640253	1.176778	0.374162	1.297268	1.242598	1.11236	1.243509	0.233107	0.270853
0.00765199999999999	0.382319	1.173445	1.327961	0.947918	1.493758	0.22402	0.406128	0.724087	-0.443959	0.828993	0.409307	1.979247	2.478806	0.842436	1.801842
-0.260652	-1.188967	0.522343	0.896619	0.993435	1.691097	0.377729	0.546613	1.387789	0.902549	1.565283	1.743014	1.119774	1.218977	0.194617	0.380621
0.16093	0.533497	1.327645	1.512701	0.820142	1.2483	0.151649	0.130945	1.349182	0.922504	1.490044	1.746561	2.048329	2.646948	0.865805	1.929397
-0.28879	-0.871296	0.546174	0.891662	1.273576	2.257459	0.800688	1.474845	1.000134	0.00717299999999998	1.129548	0.944168	1.264246	1.452585	0.282274	0.816177
0.266826	0.83529	1.462524	1.632235	0.945304	1.542172	0.278963	0.527539	1.324013	0.817609	1.617262	1.706543	1.131717	1.300979	0.189359	0.676737
-0.070339	-0.279402	0.897955	1.160438	1.261623	2.335874	0.648294	1.112561	0.749061	-0.478641	0.774302	0.489047	0.969034	1.104511	0.086417	0.365776
0.00624400000000003	0.081463	0.941523	1.265973	1.040304	1.814656	0.406165	0.636367	0.960802	-0.0520450000000001	1.086254	0.942716	1.648459	2.280554	0.601228	1.391995
-0.027953	-0.226226	0.709869	1.048985	1.192985	2.098934	0.502614	0.937905	1.273714	0.770219	1.470228	1.666557	2.124433	2.769163	0.919474	2.014983
0.245628	0.935548	1.293361	1.471551	1.096862	1.955366	0.417909	0.60141	1.350755	0.882563	1.557062	1.816484	1.853598	2.340614	0.741233	1.508243
-0.091517	-0.09804	0.720137	0.9993	1.516222	2.815053	0.970546	1.758401	0.749061	-0.478641	0.843044	0.380788	2.010929	2.643115	0.7335	1.708388
0.21116	0.846786	1.309822	1.454386	1.131296	1.974192	0.474484	0.857402	1.226013	0.57553	1.277386	1.326903	2.256607	2.94442	0.973599	2.227326
-0.056024	0.205958	0.857031	1.081597	1.439962	2.606591	0.785601	1.53964	1.537355	1.207828	1.712557	1.870173	1.396834	1.668849	0.235794	0.723172
0.021284	0.470684	0.938815	1.226573	1.032058	1.840402	0.391959	0.531573	0.799044	-0.312258	0.88725	0.521812	1.808391	2.516961	0.601504	1.554857
-0.359511	-0.881118	0.339848	0.743007	0.803093	1.367112	0.11822	0.096139	1.535374	1.217233	1.760277	1.92352	1.339479	1.73274	0.267217	0.692095
0.175416	0.833739	1.125561	1.34199	1.116119	1.992987	0.43676	0.787515	1.113082	0.304434	1.26872	1.033592	2.11163	2.704176	0.81107	1.921529
-0.204278	-0.602003	0.439979	0.871997	0.983896	1.782631	0.394452	0.508969	0.736329	-0.560132	0.783764	0.364024	1.483261	1.897332	0.320669	0.956019
0.0907560000000001	0.72105	1.134912	1.30792	0.815882	1.478136	0.222564	0.253228	0.811445	0.0420999999999999	1.030385	0.685331	1.332287	1.719807	0.204329	0.877747
-0.0285599999999999	0.156501	0.917657	1.16512	0.815882	1.408813	0.151649	0.105391	1.111073	0.617786	1.417947	1.343654	1.927783	2.428857	0.585763	1.634691
0.0484819999999999	0.306929	0.812229	1.153227	0.919247	1.574987	0.286157	0.361708	1.235405	0.865046	1.481695	1.717437	1.776494	2.31448	0.469311	1.401169
-0.190275	-0.656351	0.392308	0.859868	0.925984	1.533693	0.226891	0.313999	1.656969	1.64275	1.978421	2.621289	1.314388	1.707825	0.088269	0.799984
0.18876	0.533497	1.111048	1.42727	1.147538	1.906691	0.465008	0.69444	1.521835	1.586537	1.867517	2.45167	1.156743	1.417069	0.0419229999999999	0.553322
-0.134131	-0.210904	0.63492	1.008229	0.736067	1.034152	-0.069595	-0.359334	1.574185	1.51252	1.899621	2.484481	1.235126	1.515313	0.094773	0.537221
0.328907	1.159635	1.335139	1.535303	0.941122	1.568243	0.177728	0.140097	1.09997	0.691785	1.425161	1.655545	1.264246	1.517124	0.151269	0.553322
0.204511	0.647111	1.156838	1.453651	1.21127	2.033429	0.41326	0.717727	1.475223	1.398983	1.756494	2.223911	1.662189	2.113247	0.41477	1.3546
0.443187	1.472049	1.583088	1.74698	1.500892	2.527727	0.793898	1.331886	1.000134	0.290206	1.200255	1.261581	1.627825	2.026533	0.413191	1.208295
0.346895	0.810599	1.453972	1.660623	1.729541	2.882108	0.996093	1.870842	1.187558	0.581119	1.409492	1.600569	2.579254	3.343376	1.108882	2.496703
0.836608	2.444899	2.25882	2.267798	1.661795	2.601584	0.828876	1.425742	1.541491	1.064956	1.840378	2.131486	2.690465	3.433752	1.262959	2.638502
0.552928	0.962443	1.639047	1.836438	1.566769	2.356568	0.710463	1.115811	1.281145	0.491	1.696628	1.74213	3.034608	3.577766	1.484409	2.808295
0.870841	2.050494	2.337104	2.298796	1.858027	2.755503	0.901694	1.472466	1.753168	1.266393	2.139768	2.189549	2.289512	2.355006	0.876283	1.318742
0.617742	0.91336	1.860471	1.885823	2.080025	3.241118	1.215851	2.02162	1.910805	1.229399	2.247272	2.307167	2.462572	2.54008	1.066033	1.546823
0.994671	1.43922	2.098353	2.117179	2.189602	3.411935	1.23507	2.237684	2.110307	1.644827	2.701846	2.775301	2.651796	2.912226	1.212226	1.85563
0.809023	0.672099	1.62353	1.816573	2.067848	3.163626	1.17201	1.838059	2.399008	1.986611	3.002831	3.027407	2.822479	2.980222	1.488843	1.903967
1.321906	1.966346	2.355402	2.438539	2.123122	3.459175	1.495413	2.532993	2.046167	1.094533	2.603208	2.009865	2.503153	2.558785	1.521365	1.202996
0.981923	0.495905	1.688407	1.903581	2.028305	3.380871	1.626639	2.570172	2.625133	1.79101	3.179674	2.743546	3.041951	3.049709	1.985723	2.064287
1.50558	1.890661	2.592603	2.649801	1.674542	2.610576	1.138056	1.475084	2.761271	1.864789	3.316516	2.696768	3.484229	3.637521	2.350599	2.845252
1.405362	1.22142	2.29352	2.396205	1.862911	2.95538	1.357551	1.663644	2.685802	1.685136	3.319201	2.658863	2.985789	2.739693	1.85594	1.697571
1.485491	1.504765	2.389266	2.526649	1.816535	2.753088	1.276274	1.630445	2.821874	1.799182	3.359944	2.536781	3.138032	2.866854	2.032382	2.097804
1.404026	1.138979	2.346112	2.449595	1.901004	2.884116	1.338825	1.779787	2.791157	1.579064	3.262192	2.36495	3.443707	3.300206	2.268071	2.643482
1.781875	2.081826	2.845204	2.91796	1.914139	2.921318	1.432432	1.844438	2.604249	1.218247	3.14247	2.041201	3.214333	2.757854	2.155616	2.195015
1.408411	0.864041	2.271651	2.493699	1.929657	2.89235	1.382168	1.808706	2.801408	1.398983	3.249944	2.251374	3.142092	2.646948	2.17263	2.121448
1.503861	0.985795	2.420687	2.482691	1.940303	2.844895	1.463801	1.884393	2.511766	0.872559	2.894775	1.574978	3.249572	2.960697	2.296067	2.390025
1.605351	0.819607	2.364894	2.560654	2.140251	3.245295	1.70867	2.429064	2.765104	1.516598	3.143271	1.950329	3.223375	2.916591	2.164261	2.304951
1.599912	0.676027	2.290203	2.614122	2.102352	3.052279	1.658689	2.20809	2.953335	1.977025	3.423488	2.413145	2.873657	2.393285	1.933177	1.81644
1.67504	0.819607	2.202788	2.588231	1.976241	2.774031	1.533588	1.867849	2.779863	1.636359	3.32294	2.272574	3.557287	3.384761	2.38269	2.77816
1.723436	0.985795	2.25903	2.599181	2.167878	3.274987	1.824134	2.380943	2.989648	2.115035	3.631684	2.952588	3.367643	3.194876	2.274467	2.378056
1.653522	0.432949	2.08722	2.501544	2.261152	3.475035	2.009	2.780681	3.00523	1.912638	3.508206	2.664522	3.352386	3.547743	2.303293	2.585823
2.062471	1.682002	2.584198	2.889911	1.88791	2.689188	1.50284	1.70394	3.275131	2.528628	3.764781	3.157742	3.035738	3.023734	2.05726	2.047469
1.755915	0.069737	1.841553	2.401761	1.96014	2.92315	1.663897	1.910837	2.733359	1.577048	3.34863	2.176919	3.400149	3.39777	2.343994	2.638461
2.276764	1.760384	2.714984	3.008918	2.047039	3.139643	1.828901	2.255463	2.582107	1.018582	3.027855	1.903567	4.165924	4.495434	2.912019	3.90886
1.755915	0.0823800000000001	1.825423	2.318483	2.105969	3.380353	1.952054	2.47502	3.281897	2.545432	3.834735	3.237752	2.785941	2.62563	1.907935	1.644034
2.397184	1.927182	2.846061	3.103837	1.948042	2.903623	1.658769	1.872035	3.331686	2.841162	3.977145	3.492456	3.574761	3.685582	2.387069	2.789371
1.955653	0.631957	2.158512	2.496095	2.554557	4.335994	2.445675	3.483405	2.560754	1.099362	3.10569	1.852755	3.134281	3.120395	2.176527	2.390025
2.079072	1.318704	2.45311	2.698978	1.974214	3.100534	1.780946	2.023629	3.463859	3.105266	4.130153	3.748804	3.160735	3.212866	2.063709	2.232004
1.923725	0.592494	1.957733	2.370035	2.059159	3.321266	1.947905	2.398724	3.196675	2.639442	3.828191	3.151313	2.937638	2.995371	1.894732	1.952354
2.182466	1.532139	2.508965	2.691889	2.579653	4.402285	2.498584	3.595206	2.750266	1.434827	3.241795	2.206855	3.683404	4.059199	2.434216	3.270891
1.91858	0.790132	2.096371	2.336161	2.23217	3.638534	2.178872	2.810677	3.018277	2.374793	3.632955	2.979509	2.771433	2.777346	1.833791	1.868655
2.092467	1.166656	2.277749	2.548381	2.242239	3.592419	2.190255	2.886874	2.212733	0.36187	2.563816	1.171254	2.932123	2.945224	1.929273	2.171256
2.14303	0.840396	2.237104	2.602146	2.442319	4.02454	2.45116	3.44452	2.560754	1.417448	3.019372	2.117492	3.134866	3.09534	2.055342	2.340929
2.269569	1.309802	2.44346	2.688659	2.29893	3.818806	2.284806	3.073574	2.719146	1.769175	3.207593	2.542471	3.150159	3.231094	2.066423	2.474422
2.55111	2.222469	2.956264	3.090579	2.092011	3.378083	2.011968	2.437918	2.460423	1.299621	2.882567	2.070146	3.740071	4.235272	2.620138	3.700405
2.381208	1.564047	2.704736	2.907953	2.482695	4.138833	2.429201	3.334147	2.808837	2.087364	3.225908	2.844608	3.472248	3.735192	2.415629	3.142011
2.64828	2.418066	2.987429	3.109905	2.253353	3.566632	2.072343	2.434929	3.31666	3.129589	3.806511	3.923944	4.236099	4.686859	2.971144	4.222924
2.316483	1.444108	2.527289	2.723863	2.428885	3.901095	2.253663	2.772369	3.160859	2.902764	3.602743	3.57771	4.691606	5.467994	3.317437	4.927888
2.50913	2.085586	2.902426	3.024994	2.094164	3.13579	1.824309	1.788658	2.497112	1.441305	2.84162	2.394191	3.731719	4.019451	2.537213	3.157293
2.328352	1.315049	2.547215	2.825657	2.570317	3.937681	2.264712	2.733419	3.311706	3.170581	3.770199	3.926583	3.564124	3.66809	2.427657	2.947484
2.54063	1.797307	2.745336	3.021876	2.53876	3.847817	2.259092	2.696448	3.194606	2.862867	3.687477	3.621035	3.034029	2.892548	2.11045	1.934736
2.318069	1.135936	2.470006	2.72771	2.658978	4.208282	2.495486	3.034778	2.832966	2.1307	3.294505	2.796769	3.714701	3.787225	2.561608	2.969048
2.994526	3.00453	3.467563	3.639384	2.45962	3.756117	2.154693	2.238194	2.946615	2.276121	3.440197	3.055098	4.009204	4.109372	2.702457	3.317158
2.672807	1.882592	3.046849	3.225237	2.772951	4.332361	2.48462	2.997068	3.007182	2.306767	3.430486	2.922308	3.51147	3.41652	2.38502	2.416994
2.776904	2.535125	3.299497	3.359066	2.630826	3.982769	2.253574	2.54229	3.617236	3.502623	4.147758	4.138806	3.947552	4.01026	2.690892	3.086493
2.944814	2.409351	3.336171	3.48786	2.888362	4.659775	2.692171	3.26231	3.138047	2.239208	3.445062	2.971217	3.386364	3.184382	2.262528	2.343542
2.903405	2.516839	3.405168	3.500393	2.782845	4.268622	2.493557	2.959388	3.081217	2.218184	3.437767	2.968428	3.44407	3.093305	2.317706	2.244236
2.694645	2.051095	3.186461	3.248943	2.772951	4.339019	2.653727	3.147697	3.017263	2.050746	3.324173	2.83759	3.311631	2.918728	2.165468	1.985818
3.083081	2.887258	3.743485	3.761837	2.434323	3.61791	2.134941	2.0562	2.824966	1.560202	3.008319	2.220849	3.468737	3.157162	2.232301	2.280711
2.779941	2.091247	3.343036	3.429325	2.699801	4.072424	2.495486	2.92305	3.030635	1.87014	3.270802	2.885163	3.559305	3.235095	2.317706	2.232046
2.500027	1.874142	3.164906	3.178485	2.349235	3.511087	2.171776	2.246496	3.311706	2.620508	3.583914	3.448317	3.619193	3.39777	2.372798	2.611941
2.959351	2.972993	3.901555	3.745258	2.564058	3.817899	2.326638	2.585714	3.267854	2.525846	3.679853	3.449136	3.447476	3.037798	2.317888	2.330035
2.635113	2.182549	3.215733	3.196759	2.497708	3.784006	2.261912	2.359385	3.121133	2.18854	3.536923	3.230808	3.921491	3.806368	2.634866	3.078817
2.787519	2.714638	3.516712	3.478593	2.485099	3.817899	2.24784	2.361564	3.184728	2.347509	3.560431	3.404455	4.179431	3.954576	2.774372	3.406854
2.603698	2.079933	3.252042	3.201756	2.608112	3.923112	2.239444	2.364938	3.155024	2.371472	3.437767	3.141925	4.152601	3.970957	2.754335	3.358406
2.809998	2.93563	3.697602	3.580293	2.784125	4.243174	2.404731	2.741186	2.855786	1.576749	3.04333	2.530855	3.895243	3.547015	2.500878	2.699345
2.410694	1.76176	3.103501	3.07961	2.504179	3.760861	2.158463	2.001774	2.812388	1.643911	3.096547	2.710715	3.961076	3.815927	2.646558	2.990572
2.531861	2.069053	3.139512	3.141958	2.491461	3.744544	2.110252	2.105276	3.138047	2.218184	3.400261	3.360936	4.074582	4.003764	2.701152	3.258427
2.522773	1.817782	3.120803	3.088934	2.620791	3.949119	2.273139	2.477966	3.040685	1.978856	3.365459	3.059076	4.19731	4.096288	2.872172	3.4866
2.572343	2.306289	3.353584	3.267499	2.36175	3.536609	1.912308	1.799872	2.806224	1.567874	3.194291	2.627917	3.838234	3.707022	2.659309	3.068253
2.585682	1.871252	3.074006	3.055314	2.554536	4.012644	2.287223	2.364938	3.131082	2.087364	3.457256	3.060807	3.97403	3.917155	2.714008	3.267274
2.902845	2.804804	3.646749	3.606705	2.209849	3.195276	1.782405	1.390144	2.699405	1.108678	2.915687	2.159822	3.33778	2.925528	2.189813	2.083163
2.599109	2.114689	3.357505	3.345722	2.516694	3.686106	2.075734	1.949567	2.795912	1.45895	3.191635	2.453469	3.812	3.436829	2.512831	2.615608
2.737633	2.712493	3.624244	3.633371	2.390091	3.476939	1.880802	1.726037	3.097476	1.908918	3.425042	2.979509	3.90808	3.798793	2.714008	3.015297
2.509466	2.002833	3.255743	3.311749	2.683989	4.083452	2.306927	2.553723	2.869963	1.400062	3.128486	2.455314	4.218236	4.212455	2.881505	3.506058
2.491665	1.767875	3.0994	3.283049	2.652841	3.941492	2.250671	2.401926	2.964063	1.601391	3.341151	2.593607	3.99168	3.806368	2.664072	3.05768
2.402312	1.321675	2.892019	3.07961	2.778121	4.164777	2.41886	2.891175	3.057557	1.527622	3.267942	2.644455	4.004705	3.898394	2.755693	3.136532
2.433921	1.66636	2.932323	3.090223	2.674314	3.946291	2.174862	2.519834	3.263427	2.252825	3.593492	3.112727	4.762574	4.839487	3.238945	4.272992
2.406977	1.399804	2.917386	3.097829	2.456754	3.69762	2.045614	2.11148	3.427794	2.337907	3.586986	3.203498	4.439929	4.310035	3.068355	3.922721
2.282948	1.721019	2.981459	3.04823	2.270457	3.325848	1.761182	1.663095	3.739823	3.127079	4.024791	3.874477	4.248571	4.221379	2.995428	3.773378
2.238579	1.330842	2.679514	2.799801	2.686572	4.267791	2.385116	2.927345	3.242751	2.092287	3.400379	2.743546	4.413738	4.646807	3.073798	3.981397
2.243402	1.721019	2.850824	2.947403	2.210885	3.237461	1.85748	1.774907	3.811214	3.428208	4.134707	3.999292	3.176098	2.912226	2.106587	2.083916
2.26556	1.112475	2.563453	2.825039	2.658181	4.116684	2.376582	2.965407	3.044683	1.643273	3.260389	2.526511	4.174409	4.248106	2.84424	3.624494
2.519853	2.239605	3.151654	3.201594	2.419681	3.613942	2.150347	2.452305	3.285791	2.17563	3.524704	3.03451	3.839496	3.804823	2.602987	3.089371
2.169565	0.918948	2.478214	2.673927	2.137201	3.037365	1.770284	1.753179	3.288681	2.506239	3.601425	3.166194	2.952517	2.681464	2.003622	1.763918
2.568665	2.139348	3.147576	3.206211	1.998411	2.779287	1.609755	1.379443	3.226206	2.190386	3.297019	2.872675	2.802916	2.366912	1.889769	1.630598
2.399984	1.354848	2.72997	2.951429	2.494839	3.789486	2.239772	2.599949	3.463859	2.739785	3.524704	3.202523	2.791602	2.421786	1.797678	1.652641
2.635082	2.295104	3.208809	3.24714	2.453841	3.806635	2.138911	2.411068	3.410947	2.746068	3.702551	3.413694	3.196815	3.026989	2.106587	2.206934
2.506088	1.603745	2.927833	3.043193	2.248993	3.310223	1.79123	1.708259	2.902619	1.660021	3.076842	2.404051	3.707206	3.768045	2.45788	2.915065
2.506088	1.518896	2.902426	3.058348	2.532458	3.938555	2.200173	2.63004	2.882223	1.495602	3.094693	2.272574	3.987268	4.118414	2.724287	3.507564
2.430273	1.190103	2.648869	2.763986	2.46613	3.727191	2.057192	2.15272	3.746667	3.348203	4.058264	3.917256	4.518588	4.90453	3.073798	4.373538
2.648312	2.200744	3.186461	3.14965	2.355234	3.558047	1.949611	2.036635	3.369952	2.452052	3.621462	3.070619	4.361398	4.702599	2.952437	3.955015
2.536821	1.588294	2.903946	2.972835	2.794785	4.402285	2.517178	3.222166	3.207319	2.131435	3.468309	2.560493	4.391578	4.622062	2.958	3.854886
2.745979	2.295104	3.248374	3.290859	2.567379	4.053663	2.197159	2.59238	4.10337	3.904851	4.572755	4.422478	3.943837	4.006792	2.56644	3.267274
2.351045	0.982214	2.623436	2.825657	2.554663	3.934691	2.157776	2.63004	3.343298	2.252825	3.693282	2.863535	4.226608	4.372595	2.783042	3.804898
2.568665	1.566135	2.740434	3.040109	2.405899	3.786385	2.143811	2.483154	3.862562	3.248385	4.301114	3.832697	4.451814	4.550046	2.891033	3.972605
2.135347	0.355558	2.161543	2.58242	2.320996	3.592419	1.928039	2.266491	3.543337	2.604536	3.991674	3.207583	3.42019	3.18647	2.149794	2.416994
2.573904	1.698376	2.72495	3.0238	2.137876	3.226938	1.714558	1.710434	3.365181	2.020284	3.686507	2.660734	4.459741	4.623392	2.932002	4.048602
2.198903	0.584732	2.218304	2.68052	2.148077	3.308805	1.803219	1.940086	3.153762	1.62789	3.415774	2.330896	3.414311	3.0809	2.018469	2.304951
2.390568	1.553598	2.649629	2.972098	2.076579	3.226245	1.711957	1.723699	3.55478	2.457165	3.913364	3.293292	3.932344	3.980305	2.428129	3.309481
2.233034	1.114766	2.418408	2.83575	2.382533	3.714822	2.048798	2.427698	3.16705	1.596197	3.277255	2.297416	3.98404	4.156378	2.428129	3.466295
2.474807	2.225755	3.015543	3.315236	2.244419	3.495055	1.959654	2.206451	3.402136	2.104789	3.533325	2.728906	2.924888	2.69425	1.636534	1.916896
2.317685	1.568341	2.49928	2.950268	2.166428	3.523972	1.959654	2.203209	3.062199	1.750504	3.192591	2.297416	3.976153	4.153451	2.387069	3.622315
2.320022	1.943633	2.770475	3.070801	1.979761	3.115777	1.670978	1.694656	3.190258	1.984904	3.311149	2.598987	3.408256	3.286465	1.84998	2.497079
2.035814	0.94895	2.265332	2.711081	2.167878	3.364714	1.855504	2.025372	3.378968	2.312465	3.365248	2.855868	2.899266	2.755769	1.470381	1.833562
2.324832	1.860016	2.655888	3.116951	2.383287	3.809865	2.11635	2.644327	3.209953	2.290549	3.229559	2.684349	3.187895	3.247697	1.778945	2.556808
2.238432	1.34892	2.401836	2.928507	2.318847	3.683005	2.095077	2.539027	3.404963	2.657468	3.490029	3.343381	3.01277	3.077823	1.609688	2.160339
2.40872	2.178439	3.018913	3.24038	2.227982	3.431372	1.84815	2.243953	3.217067	2.183366	3.16504	2.90165	2.751555	2.76706	1.467794	1.872752
2.25515	1.325114	2.600654	2.949941	1.943849	2.852757	1.560816	1.373549	3.291329	2.609082	3.321887	3.2621	2.921556	3.237158	1.583116	2.461041
2.542945	2.292456	2.964527	3.255177	2.119564	3.106935	1.713569	1.813115	3.362662	2.821984	3.474793	3.508782	2.904843	3.155827	1.599819	2.377148
2.226662	1.382265	2.531722	2.829066	1.79745	2.613476	1.382248	1.038319	3.079982	2.041074	3.017422	2.848564	3.562194	4.086806	2.042067	3.350182
2.372859	1.760985	2.780372	3.078082	1.909331	2.72774	1.46534	1.258157	3.317309	2.754386	3.275772	3.179634	3.653817	4.231771	2.186028	3.525494
2.109121	1.135532	2.361589	2.654807	2.20037	3.31204	1.796432	1.957785	3.495175	3.135644	3.500245	3.673249	3.479565	3.919251	2.10438	3.294607
2.162107	1.273117	2.386409	2.729647	2.000856	3.097001	1.682197	1.551679	2.842103	1.63044	2.673829	2.269837	3.000133	3.356434	1.785656	2.651152
2.050966	0.962443	2.184301	2.58255	2.004368	2.954045	1.586183	1.485645	2.898607	1.816632	2.817481	2.406489	3.065548	3.462265	1.903069	2.889743
2.044596	0.772713	1.944875	2.398365	1.88555	2.948909	1.51	1.261091	2.966163	2.104789	3.020343	2.643828	3.4132	3.744512	2.130035	3.182509
1.953559	0.48311	1.861803	2.309935	2.007879	3.168999	1.707498	1.663644	3.151746	2.615818	3.321887	3.22278	3.060123	3.170255	1.765442	2.461041
2.188553	1.330635	2.552699	2.825796	1.804722	2.772375	1.484551	1.077101	3.327021	3.178123	3.538364	3.551787	2.503153	2.505258	1.430177	1.890389
2.018027	0.822154	2.114084	2.517453	2.071628	3.382956	1.764051	1.819801	2.842103	2.008545	2.962366	2.56972	2.94707	3.114472	1.748692	2.532501
2.134096	1.391901	2.41077	2.724851	1.795759	2.859193	1.54783	1.346587	2.934613	2.485298	3.173518	2.869203	3.530662	3.841168	2.183345	3.230133
2.011813	0.822154	2.006637	2.449183	1.738012	2.544695	1.382073	1.019245	2.728267	1.88087	2.69524	2.348075	3.147435	3.48485	1.936086	2.839216
2.000597	0.696242	1.97332	2.390124	1.85186	2.712426	1.496221	1.363969	2.341133	1.093328	2.323573	1.843912	2.929571	3.238119	1.792804	2.532511
1.968958	0.2935	1.786654	2.333018	1.985105	3.025857	1.673534	1.652922	2.95941	2.533253	3.032373	3.149101	2.653501	2.94442	1.556217	2.355681
2.027076	0.721897	1.997875	2.42513	1.703152	2.398982	1.273997	0.818801	2.616038	1.905361	2.578196	2.543916	1.890569	1.821051	0.972218	0.90936
1.846301	0.229995	1.779109	2.301539	2.0416	3.11521	1.748955	1.798295	2.486573	1.760415	2.534896	2.527145	2.414077	2.696792	1.356374	1.976419
2.165464	1.132398	2.29711	2.749191	1.989842	3.080025	1.636085	1.496343	2.409705	1.681738	2.588338	2.489317	2.376583	2.485049	1.295612	1.735453
2.033255	0.797463	2.071618	2.486517	2.263073	3.510236	1.926664	2.152633	2.209036	1.283466	2.337548	2.00326	2.047764	2.16908	1.065826	1.307621
1.937243	0.633754	1.932895	2.383051	2.305817	3.586381	1.99731	2.294146	2.63115	2.158635	2.811403	2.785386	2.426269	2.673946	1.263682	1.748771
1.814	0.408639	1.736798	2.119591	2.032421	3.054869	1.573185	1.417395	2.253242	1.312529	2.320078	1.903686	2.501895	2.778337	1.386696	1.937686
1.861985	0.296472	1.557713	2.067071	2.191482	3.373565	1.776102	1.857466	2.330354	1.608192	2.4913	2.070929	3.240718	3.821891	2.011877	3.288186
2.001625	0.294857	1.65602	2.149721	2.411278	3.863908	2.143046	2.618853	2.407589	1.599546	2.615465	2.275222	3.220701	3.792891	2.018405	3.298559
2.11412	0.571118	1.901057	2.229599	2.091011	3.194662	1.788136	2.009484	2.707541	2.208722	2.954048	2.892674	3.549891	4.178297	2.299427	3.671044
2.296144	1.03302	2.006637	2.304418	1.987504	2.9189	1.698701	1.765593	3.032291	2.918612	3.358272	3.427637	2.356932	2.44068	1.33155	1.69497
2.334445	0.771456	1.966187	2.379092	1.817613	2.589588	1.458355	1.39048	2.687217	2.286542	3.095707	2.823353	3.271288	3.658496	2.041616	3.072431
2.45188	0.971088	2.096222	2.39468	1.752182	2.589575	1.515304	1.434161	3.288277	3.532648	3.788437	4.080296	3.352433	4.033258	2.170614	3.292842
2.274607	0.471302	1.753612	2.117156	2.203427	3.345872	1.98988	2.550663	3.030893	2.751815	3.397165	3.435952	2.932232	3.324742	1.80327	2.672897
2.334445	0.14478	1.631438	2.037235	2.048606	3.153299	1.914846	2.332789	2.938444	2.47307	3.344929	3.199565	2.483838	2.669885	1.456298	1.882421
2.669215	1.382265	2.339967	2.405687	1.899592	2.967761	1.831219	2.089914	2.820854	2.396756	3.182002	2.947194	2.614722	2.993629	1.607152	2.180577
2.427674	0.546165	1.883796	2.053668	1.770577	2.784577	1.660576	1.73056	2.416203	1.471096	2.751313	2.226525	2.639956	3.119136	1.583996	2.227326
2.444457	0.758583	2.161129	2.263029	1.84305	2.885636	1.755946	1.905976	2.815726	2.622385	3.448005	3.317406	3.651226	4.540107	2.381575	3.860579
2.327331	0.37007	1.876452	2.113334	1.96869	3.138327	1.857466	2.119224	2.491032	1.976448	3.000401	2.692679	3.047416	3.725515	1.919052	3.047075
2.320322	0.483561	1.818741	2.089622	1.881594	3.038677	1.845539	2.005418	2.249326	1.698819	2.802019	2.456716	2.541971	3.099366	1.595806	2.105144
2.059759	-0.446412	1.35328	1.753715	1.68375	2.623271	1.553489	1.361053	2.01489	1.330949	2.541549	2.16608	2.395762	2.966221	1.486547	1.882421
2.509069	0.909011	2.105134	2.319142	1.638263	2.544595	1.452083	1.137967	1.438366	0.326585	1.91769	1.193864	2.098811	2.546938	1.286838	1.587896
2.157148	-0.259468	1.475934	1.952591	1.672572	2.663023	1.509509	1.320032	1.555317	0.315515	1.930266	1.35059	2.244076	2.723836	1.470389	1.815059
2.478159	0.995428	2.161129	2.429314	1.771707	2.724951	1.54783	1.358144	1.925411	1.189	2.315841	2.1457	2.212543	2.596996	1.386696	1.587896
2.454722	0.48311	1.877808	2.287646	2.135099	3.520461	2.083532	2.328007	2.158857	1.735334	2.565826	2.598987	2.794186	3.501063	1.902577	2.579529
2.62946	1.24535	2.12979	2.42489	2.063186	3.269162	1.874799	1.963873	2.738658	2.815622	3.145287	3.507146	2.015937	2.256409	1.297266	1.330923
2.454722	0.558618	1.771578	2.216915	2.131659	3.397343	2.071969	2.219872	2.551028	2.664108	3.122093	3.46642	2.698338	3.268738	1.802629	2.284143
2.776824	1.685003	2.442021	2.683384	1.975711	3.054869	1.86291	1.706393	2.592631	2.657468	3.160054	3.383093	2.389648	2.850568	1.672556	1.916413
2.802957	1.37267	2.43262	2.758154	2.335421	3.806122	2.348582	2.685458	2.408853	2.178741	2.915203	3.050578	3.101842	3.821891	2.132247	2.733144
3.09345	2.080095	2.71626	2.907262	1.910607	2.979714	1.824268	1.529047	2.367316	2.0971	2.903782	2.929846	2.819633	3.335665	1.895948	2.199787
2.751169	0.697028	1.943163	2.402801	2.370664	3.863908	2.453707	2.97614	1.909803	1.17015	2.342544	1.934359	3.043829	3.646677	2.249205	2.878637
2.898484	1.235261	2.237678	2.630248	2.111271	3.397042	2.254926	2.334405	2.608242	2.553914	3.160054	3.383093	3.285552	3.986418	2.403462	3.065859
2.734793	0.797463	2.073648	2.371986	2.051293	3.231616	2.11635	1.970052	2.780469	2.725549	3.188816	3.467297	2.830977	3.328249	2.193849	2.473059
2.817011	1.287138	2.309025	2.47554	2.232376	3.552166	2.348878	2.515375	2.582651	2.349038	2.927826	3.065747	2.89303	3.628674	2.252969	2.638502
3.091384	1.989006	2.766582	2.92874	2.107813	3.364057	2.191397	2.25873	2.837364	2.889105	3.220264	3.633422	3.148752	3.870011	2.475749	3.014353
3.005901	1.443587	2.524407	2.716893	1.783346	2.741233	1.732772	1.29086	2.420986	1.872704	2.639673	2.732964	2.954912	3.57174	2.376954	2.803196
2.852267	0.646449	2.022444	2.387561	2.210244	3.571429	2.227698	2.336032	2.749005	2.588101	3.087108	3.427637	3.06185	3.735323	2.615681	3.061605
3.044246	1.022139	2.136523	2.486517	2.349846	3.908884	2.423294	2.766099	3.164179	3.542795	3.495135	4.161399	2.923992	3.725515	2.569423	2.908873
3.287036	1.48642	2.447976	2.761997	2.309154	3.807078	2.475617	2.728584	3.463929	3.846251	3.708565	4.404207	2.483838	2.845685	2.296994	1.989293
3.177019	0.951516	2.240473	2.629041	2.311211	3.728832	2.439856	2.726408	3.190258	3.302545	3.538364	3.958792	2.864945	3.395078	2.574541	2.556044
3.483452	1.814102	2.760619	2.992421	2.09397	3.340413	2.058465	1.901582	2.999794	2.870274	3.41333	3.793865	3.637862	4.410808	3.188992	3.747053
3.547749	1.92866	2.795372	3.035188	2.153909	3.481913	2.139319	2.017736	2.414889	1.664648	2.798942	2.524799	3.885277	4.823908	3.445309	4.113
3.343174	1.287138	2.370958	2.704125	2.148748	3.458936	2.154978	2.223338	2.796286	2.264319	3.07563	2.977027	3.751839	4.580132	3.346662	3.862794
3.450384	1.239236	2.380367	2.803872	2.493294	4.141409	2.467592	2.904966	2.827113	2.403983	3.174064	3.023943	3.880702	4.737151	3.382882	3.95018
3.748428	2.581258	3.103793	3.318993	2.462343	4.088002	2.492428	2.905801	3.05606	2.793148	3.469654	3.470981	3.740325	4.557951	3.248012	3.622544
3.335211	1.311004	2.541278	2.900083	2.238089	3.68733	2.215337	2.289276	2.790772	2.087788	3.150927	2.779271	3.510827	4.084483	2.999471	3.188137
3.643962	2.232178	3.143334	3.382779	2.31553	3.744597	2.259787	2.507197	3.470949	3.441282	3.894414	4.080254	3.756552	4.336729	3.093061	3.497026
3.4133	1.737881	2.875032	3.045751	2.350865	3.770159	2.351476	2.656682	3.196665	2.780205	3.596972	3.428617	3.782269	4.406218	3.082033	3.535336
3.423171	2.06611	2.909962	3.052991	2.026827	3.307211	1.990729	1.928378	3.585178	3.731166	4.125737	4.324098	4.199585	4.926365	3.304301	4.266622
3.269702	1.606617	2.76535	2.974971	2.251551	3.652103	2.205005	2.334405	3.164179	2.540194	3.495135	3.225368	3.474555	3.986418	2.696128	3.257015
3.062619	1.944109	2.899917	2.946271	2.282433	3.770159	2.205005	2.295793	3.252254	2.786674	3.688206	3.510488	3.623318	4.075258	2.696117	3.380624
2.911453	1.585798	2.795759	2.882543	2.112822	3.217959	1.92367	1.690547	3.226176	2.677402	3.556212	3.346627	3.479565	3.986418	2.519594	3.150743
2.894159	2.027864	2.919607	2.978122	2.153909	3.317114	1.979746	1.695553	2.811342	2.008545	3.127765	2.484481	3.403185	3.744265	2.288325	2.904538
2.729535	1.339317	2.666759	2.889564	2.196648	3.364057	2.037377	1.868589	3.008005	2.223723	3.197176	2.692679	3.484575	3.957098	2.230298	3.161342
2.894159	2.187538	2.988711	3.0945	2.21364	3.533053	2.010632	1.908188	2.852331	1.936706	3.118854	2.529502	3.2391	3.519723	2.067927	2.748913
2.298388	0.711237	2.163483	2.431512	2.327851	3.791488	2.25824	2.405059	2.836679	1.681738	3.017657	2.328912	3.096446	3.230125	1.8259	2.627985
2.863846	2.648135	3.133033	3.229977	1.798658	2.769375	1.649086	1.000878	2.712619	1.729409	3.017657	2.163135	2.96368	3.02664	1.741925	2.687293
2.235658	0.749392	2.073648	2.367475	2.217036	3.636988	2.162226	2.083986	2.816178	1.664648	2.968313	2.114148	2.149259	1.795319	1.130968	1.198276
2.558635	2.19702	2.830349	2.963909	1.87078	2.915559	1.801264	1.325944	2.914328	1.872704	3.058111	2.243271	2.637936	2.538994	1.397003	1.907616
2.172621	1.027917	2.302733	2.444817	2.176121	3.411329	2.062401	1.897226	2.712619	1.530181	2.936851	1.92019	3.812658	4.240743	2.381743	4.038144
2.719588	2.643461	3.257582	3.298286	2.299142	3.790158	2.266203	2.328007	3.606147	3.430769	3.946304	3.754884	2.68318	2.643929	1.437134	2.087135
2.206356	1.11848	2.411241	2.704125	2.345355	3.93303	2.35704	2.504566	3.402136	2.809267	3.769692	3.301607	3.109985	3.202303	1.758744	2.631976
2.715143	2.781229	3.343074	3.349076	2.252972	3.676164	2.241295	2.11167	2.801063	1.429011	3.066791	2.064894	3.573254	3.803683	2.046382	3.250312
2.213544	1.069771	2.489635	2.728278	2.465575	4.105037	2.428856	2.720184	2.702233	1.27563	3.110286	1.940734	3.500902	3.695388	2.005385	3.368495
2.552894	2.267946	3.059768	3.167327	1.930709	3.078377	1.747073	1.231515	3.242457	2.312465	3.647514	2.809847	4.096309	4.441687	2.464589	4.132601
2.254834	1.598118	2.625563	2.757496	2.437914	4.145235	2.415017	2.541528	2.566539	0.794354	2.912794	1.475625	4.070453	4.560562	2.464589	4.181926
2.240279	1.387909	2.489635	2.749936	2.338733	3.78593	2.224315	2.253703	2.70754	1.103035	3.104579	1.806361	3.826625	4.056784	2.257027	3.544603
2.517198	2.061658	2.940349	3.071609	2.105916	3.302448	1.93112	1.496343	2.947453	1.459456	3.313832	2.259211	4.691545	5.312603	2.815365	4.934308
2.548305	2.245597	2.945023	3.13161	2.078575	3.340413	1.975534	1.531684	3.160628	2.130209	3.594504	2.71901	4.178152	4.633614	2.500482	4.31382
2.332587	1.79072	2.715466	2.846577	2.075102	3.217028	1.880737	1.635378	3.690085	3.095138	4.146207	3.710846	3.749799	3.939353	2.166987	3.495925
2.442127	1.744307	2.790311	2.99282	2.002989	3.235825	1.919318	1.523803	3.294712	2.201224	3.688206	2.890924	4.306809	4.594183	2.536078	4.24805
2.420199	2.123117	2.974646	2.971204	2.097433	3.46353	2.014085	1.815333	3.435197	2.394673	3.787767	3.174512	3.933796	4.174502	2.201825	3.739809
1.974987	0.789612	2.231254	2.380666	1.936682	3.231616	1.87335	1.635378	3.876401	3.220851	4.305113	3.998648	3.626894	3.715149	1.964522	3.360337
2.344963	2.02967	2.924814	2.910749	1.940244	3.151606	1.821637	1.60498	3.444785	2.339033	3.833183	3.133647	2.989127	2.717002	1.484409	2.183666
1.865842	0.800984	2.228539	2.319142	1.787005	2.897883	1.610824	0.965871	2.993792	1.459456	3.235064	2.090726	3.784809	3.909766	2.011889	3.554369
2.157836	2.043488	2.850311	2.74526	1.790661	2.90314	1.610824	1.03591	3.456993	2.471237	3.740807	2.977027	3.326602	3.441845	1.670748	2.882437
1.838839	1.066164	2.333719	2.365442	1.958032	3.14831	1.762987	1.434161	3.271814	2.249513	3.589032	2.809847	3.387744	3.283532	1.626512	2.849201
2.14303	1.683262	2.626894	2.737431	2.189782	3.472123	2.003156	1.870842	2.852331	1.351124	3.046656	1.783133	2.440369	2.142556	0.937726	1.394911
1.887651	0.877628	2.253258	2.400666	2.205104	3.500298	2.022298	1.97843	3.317309	2.367872	3.616763	2.933196	2.763023	2.62096	1.164951	1.842586
2.164899	2.090962	2.929604	2.878892	2.22043	3.641419	2.054805	1.938986	3.362662	2.327087	3.578789	3.01748	3.942884	4.371337	2.083028	3.846883
1.899178	1.11848	2.451464	2.533409	2.070149	3.288345	1.866017	1.534327	3.105949	1.904421	3.404079	2.724904	3.056407	3.194876	1.420588	2.449646
2.262147	2.187538	3.048314	3.077374	1.984053	3.021313	1.612278	1.015931	2.88945	1.564936	3.217493	2.42246	3.98204	4.458898	2.119573	3.90488
1.904325	0.837139	2.39247	2.6262	2.360768	3.676164	2.07005	1.967983	2.801063	1.112571	2.921812	2.047056	3.530662	3.86358	1.735019	3.142011
2.133149	1.859931	2.820281	2.90364	2.090507	3.278754	1.911855	1.493657	3.288104	2.249513	3.563726	3.174512	3.428454	3.802937	1.745181	3.204877
1.888876	0.88873	2.395816	2.607221	2.069703	3.164101	1.785655	1.338001	3.222828	2.122622	3.574102	3.044954	3.2503	3.479252	1.592917	2.860291
2.040592	1.553598	2.710941	2.732725	2.369606	3.814506	2.205005	2.253703	3.337328	2.227322	3.530807	3.044954	3.647553	4.04998	1.890781	3.476179
1.866978	1.027917	2.321279	2.453894	2.177842	3.345142	1.898524	1.574851	3.046047	1.564936	3.209184	2.547414	3.162314	3.299528	1.449296	2.548456
2.189132	1.821533	2.835233	2.90364	2.073173	3.25957	1.824268	1.450125	3.013919	1.398983	3.115997	2.267162	3.085649	3.152392	1.449296	2.57173
1.878565	0.902316	2.256074	2.475947	2.147048	3.331021	1.85411	1.647865	3.470949	2.505528	3.790085	3.504826	3.780101	4.165443	1.931717	3.447295
1.937815	1.062878	2.29352	2.466851	2.047801	3.213065	1.803665	1.569641	3.395334	2.286542	3.568742	3.182293	3.352062	3.783219	1.663916	3.118888
1.949536	0.88873	2.222074	2.444817	1.830131	2.758588	1.548428	1.025891	2.827113	1.323727	3.017422	2.221192	2.929571	3.103712	1.311976	2.425225
1.839895	0.673111	2.073648	2.301539	1.791356	2.724018	1.586183	0.997481	3.255583	2.231226	3.482513	2.977027	2.768753	2.894453	1.133989	2.137374
1.801343	0.698102	2.105134	2.306188	1.725845	2.572932	1.591705	1.011107	3.352988	2.430264	3.629639	3.306175	2.94707	3.060537	1.259548	2.485242
1.909469	0.960004	2.257055	2.431651	1.797971	2.578573	1.604028	1.125658	2.893993	1.599546	3.133441	2.562886	3.235445	3.523248	1.441776	3.029058
1.968437	1.448473	2.564204	2.613105	1.869933	2.861733	1.717775	1.271218	3.002166	1.968472	3.269105	2.690576	2.313666	2.177497	0.811854	1.458421
1.724084	0.973405	2.207957	2.266265	2.001654	3.162858	1.76707	1.39354	2.51675	0.93247	2.648602	1.804156	2.641785	2.812078	1.107497	2.247177
2.03728	1.882893	2.732357	2.71943	1.918409	3.014634	1.748063	1.286806	2.589253	1.245417	2.865411	2.257447	2.624184	2.955234	1.100119	2.317745
1.783962	1.07664	2.38002	2.528013	1.831449	2.706408	1.583939	0.935351	2.495562	1.255545	2.672772	2.114148	2.847971	3.300206	1.237791	2.567794
1.988801	1.837085	2.741964	2.785296	1.931016	2.912044	1.71086	0.955545	2.334542	0.78708	2.410495	1.651892	3.168787	3.68618	1.516829	3.007306
1.951772	1.568341	2.65714	2.69251	2.167618	3.303417	1.895712	1.480427	2.150963	0.437063	2.176673	1.382942	3.54057	4.162549	1.819208	3.651243
2.32508	2.729776	3.354482	3.221444	2.408002	3.771818	2.156505	2.050792	2.521349	1.17915	2.69617	2.237681	3.000133	3.374433	1.46291	2.856392
2.14303	1.821811	2.86013	2.892999	2.500356	3.860695	2.214137	2.019823	2.665935	1.530181	2.854928	2.353397	3.555422	3.94765	1.946343	3.728785
2.08248	1.417564	2.55653	2.66966	2.258276	3.345305	1.892599	1.22389	2.831861	1.595265	2.892478	2.39638	3.489582	3.889866	1.909682	3.602999
2.201465	1.915323	2.979308	2.999301	2.251551	3.222853	1.816937	1.220771	2.593165	1.2548	2.767637	1.906967	3.249572	3.55871	1.799099	2.984577
2.315501	2.278497	3.168256	3.077374	2.583116	3.831286	2.348582	2.257043	2.987869	1.857922	3.240571	2.612208	3.177306	3.322613	1.724873	2.744454
2.393566	1.744554	2.810313	2.957129	2.72913	4.095794	2.49547	2.58341	3.07841	2.112478	3.346702	2.556173	4.191042	4.768363	2.524265	4.330201
2.776511	3.068414	3.582918	3.446535	2.367734	3.482865	2.192632	1.924204	3.140815	1.816632	3.351995	2.477321	3.631485	3.93348	2.122402	3.27743
2.398281	1.330842	2.58966	2.796841	2.155764	3.131758	2.006138	1.381977	3.025985	1.560332	3.247211	2.275222	3.857815	4.257	2.308509	3.714392
2.802836	2.755641	3.364423	3.354645	2.265703	3.208171	2.06817	1.647865	3.663837	2.738672	3.871744	3.306175	3.594198	3.892063	2.243154	3.307852
2.184556	0.85288	2.315087	2.519909	2.443632	3.669693	2.462119	2.369719	3.275196	2.208722	3.507879	2.645957	3.592777	4.075258	2.275819	3.476179
2.77218	2.532574	3.178637	3.227681	2.13675	3.120233	2.073954	1.647865	4.278762	4.176917	4.680159	4.565503	3.681309	4.144345	2.542622	3.603776
2.609501	1.536142	2.835365	2.974518	2.394891	3.639959	2.434358	2.408118	3.535144	2.567576	3.794728	2.941834	3.782269	4.479947	2.619628	3.846883
2.562063	1.92866	2.770475	2.936466	2.297135	3.569571	2.324018	2.160105	3.712256	2.732107	3.885279	3.189219	3.648995	4.354368	2.496101	3.700405
2.042323	0.420057	1.983749	2.286954	2.155721	3.392903	2.241295	1.943297	4.18328	3.898897	4.462653	4.081142	2.37741	2.516961	1.542294	1.79869
2.654728	2.209883	2.87003	3.058771	2.210243	3.411935	2.338299	2.13482	3.507382	2.363683	3.583821	2.756251	3.647553	4.424638	2.479622	3.95018
2.029409	0.243638	1.883796	2.199215	2.364376	3.85132	2.55221	2.66405	3.804643	2.885908	3.930397	3.284699	2.528507	2.791737	1.662988	2.029073
2.353646	1.472049	2.312572	2.545695	2.041535	3.260581	2.221249	1.891532	3.736794	2.945916	3.914812	3.408472	3.443707	4.003595	2.345929	3.564822
2.219882	0.859922	2.060958	2.301403	2.053195	3.162858	2.177383	1.923927	3.554787	2.636125	3.724451	3.127039	3.025541	3.53566	2.028603	2.985509
2.069855	0.53345	1.833766	2.09584	2.07887	3.288145	2.219227	1.859269	2.71348	1.048716	2.8008	1.679914	1.997898	2.161302	1.186975	1.241196
2.368025	1.291542	2.214575	2.376681	1.916042	2.947821	2.086181	1.546085	2.769953	1.114904	2.677797	1.72658	3.271288	4.259943	2.206557	3.651663
2.40143	1.320243	2.192371	2.362661	1.972896	3.080117	2.205892	1.7185	2.968735	1.711726	2.847012	2.130358	2.791642	3.563677	1.905805	2.853118
2.341773	1.07664	1.922943	2.20657	1.936322	2.894828	1.963428	1.309077	3.198849	2.432916	3.190493	2.758448	3.362346	4.262104	2.286898	3.680117
2.513728	1.017328	1.989152	2.259973	2.004139	3.104801	2.108641	1.628232	2.918188	2.024298	2.891638	2.395856	3.194193	4.167126	2.151451	3.516868
2.525984	1.243538	2.143272	2.410242	1.728678	2.550755	1.769017	0.934393	2.779863	1.489082	2.668065	2.081558	2.497149	3.146675	1.679398	2.413229
2.339248	0.342971	1.606613	2.110975	1.974763	2.88421	1.838354	1.160464	2.754012	1.547828	2.662254	2.016155	2.923992	3.668416	2.028603	3.055071
2.638553	1.344152	2.248036	2.547574	2.095274	3.137635	2.033949	1.45121	3.11384	2.316199	3.095707	2.916753	2.870568	3.657355	1.932513	2.760244
2.425571	0.533683	1.891154	2.346971	1.945297	2.789987	1.795259	0.969325	3.375416	2.812601	3.305737	3.318733	2.876188	3.415675	1.992269	2.604763
2.833431	1.683262	2.524407	2.785296	1.975789	2.639832	1.693465	0.868219	2.960468	2.143246	2.997442	2.623591	3.009107	3.608738	2.115317	2.952731
2.546122	0.674418	1.982043	2.33766	2.410167	3.51379	2.288714	2.198936	2.650486	1.378479	2.69617	2.172004	2.635921	3.114472	1.792804	2.185234
2.728919	1.320243	2.339967	2.545513	2.074364	2.939895	1.948791	1.328911	3.19379	2.636055	3.396153	3.433773	3.2503	3.946898	2.339712	3.246606
2.659243	0.776114	2.047024	2.348717	2.242527	3.191273	2.102811	1.791284	3.112065	2.37509	3.220264	2.985478	2.972598	3.472457	2.108889	2.822936
2.680973	1.094155	2.216939	2.405687	2.409044	3.523282	2.351476	2.221599	2.712622	1.656099	2.878249	2.331615	3.183575	3.792891	2.274352	3.118888
2.981315	2.05238	2.806136	2.824148	2.271325	3.243893	2.177823	1.943297	3.347023	2.966998	3.556212	3.43166	3.003624	3.443994	2.055729	2.726211
2.815941	1.257849	2.312572	2.473481	2.152287	3.092172	2.079733	1.711155	2.85883	1.687141	2.909789	2.286136	2.881805	3.261777	1.939109	2.437192
2.746225	1.11848	2.239055	2.380036	2.166017	3.094639	2.102811	1.756022	2.94594	1.944775	3.084133	2.511698	2.435528	2.866854	1.651999	1.965186
2.641176	1.045328	2.127614	2.202939	2.21871	3.071918	2.172118	1.903775	2.728297	1.398983	2.851872	2.089297	2.941529	3.53142	2.019366	2.774548
2.92973	1.736536	2.469261	2.508349	2.189782	3.051457	2.085508	1.751291	3.399392	2.870274	3.596972	3.270855	2.637936	2.900182	1.682203	1.990796
2.618559	0.766968	2.047024	2.064938	1.97224	2.606744	1.917766	1.220771	3.029954	1.968472	3.066791	2.50163	2.549604	2.839397	1.698749	1.929807
2.657896	1.190103	2.096222	2.117156	2.203427	3.026712	2.133582	1.870842	2.85883	1.638994	2.819292	2.16608	2.663451	3.06516	1.829214	2.256582
2.454753	0.109729	1.729836	1.852106	2.303824	3.21109	2.307235	1.972133	3.124536	2.208722	3.206416	2.739154	3.351926	3.908914	2.266356	3.253263
2.758955	1.549309	2.268814	2.234404	2.263073	3.140318	2.124183	1.713549	3.370443	2.754386	3.561699	3.305007	3.408643	3.978465	2.234915	3.358406
2.582291	0.80859	2.06682	2.004276	2.392627	3.369107	2.284806	2.036888	3.012036	2.122622	3.274561	2.806117	3.485164	4.093699	2.283559	3.329848
2.670624	1.258478	2.280907	2.19762	2.472037	3.462864	2.434696	2.2114	3.38709	2.754386	3.582187	3.345528	3.387963	4.105169	2.241212	3.407381
2.564792	1.214353	2.342969	2.196059	2.422475	3.194662	2.351323	1.961833	3.305295	2.540269	3.469657	3.260915	3.187138	3.695388	2.097954	2.902923
2.511546	1.088041	2.401836	2.226426	2.691791	3.778688	2.674199	2.609496	3.535827	2.948807	3.684758	3.548646	3.429392	4.068409	2.293203	3.416777
2.621937	1.282658	2.495378	2.345287	2.908521	4.200478	3.018215	3.261592	2.866036	1.516598	2.935639	2.191785	2.939471	3.351388	1.852968	2.513444
2.759119	1.783697	2.72533	2.562092	2.722802	3.811311	2.674199	2.504566	3.183687	2.099868	3.243222	2.800633	3.707138	4.3626	2.411593	3.832207
2.670624	1.674276	2.655888	2.51319	2.54256	3.430462	2.429846	2.059381	3.526334	2.54709	3.518237	3.224066	3.897418	4.743962	2.577827	4.089698
2.577216	1.336671	2.554915	2.436124	2.753834	3.843883	2.688464	2.504566	3.041049	1.701874	2.973604	2.108225	3.047788	3.3018	1.951414	2.71064
2.44888	1.393677	2.566123	2.37406	2.698049	3.623696	2.66359	2.321791	3.084122	1.693505	3.096611	2.350845	2.879261	3.177119	1.809312	2.4389
2.208834	0.766968	2.181652	2.082079	2.8345	3.872241	2.83601	2.864379	3.057557	1.636359	3.093785	2.434405	3.202956	3.480769	2.029109	2.902923
2.426772	1.48888	2.586966	2.499813	2.59235	3.382956	2.563825	2.170561	3.746667	2.973781	3.716509	3.465559	3.44446	3.909766	2.147906	3.37737
2.338439	1.224037	2.407876	2.358918	2.961865	4.196672	3.003112	3.116419	3.694739	2.948807	3.705298	3.346627	3.74241	4.192595	2.344768	3.634001
2.365235	1.503838	2.358425	2.334849	2.517879	3.420654	2.569208	2.242368	4.200291	3.925391	4.123687	4.161133	3.665093	4.327899	2.374782	3.810162
2.28475	1.126902	2.246856	2.26165	2.797005	4.123126	3.106526	3.189136	3.686881	2.796576	3.561699	3.14615	3.789364	4.310218	2.434216	3.791778
2.445433	1.86061	2.552699	2.547856	2.567945	3.702349	2.876208	2.719192	4.067737	3.658963	4.031256	3.836794	3.011177	3.194876	1.772688	2.452472
2.228249	1.024655	2.114084	2.23597	2.061761	2.751267	2.329187	1.422951	3.492512	2.498607	3.290739	2.659018	2.519869	2.655389	1.598992	1.998544
2.111251	1.055726	2.103058	2.164491	2.429913	3.471937	2.741191	2.400554	3.671431	3.021414	3.576587	3.193562	3.187895	3.454225	2.029109	3.016967
2.159979	0.560374	1.892408	2.089622	2.3685	3.439296	2.765849	2.437514	3.301402	2.120169	3.049389	2.263196	3.060123	3.174352	1.910604	2.763275
2.412416	1.852395	2.643617	2.582429	1.82781	2.490446	2.127842	1.03591	3.963118	3.334141	3.733677	3.557953	2.972598	3.27924	1.856633	2.919853
1.919751	0.150881	1.801779	1.909206	2.330539	3.444414	2.73405	2.513983	3.690085	2.815622	3.367902	2.949009	2.598751	2.872865	1.552589	2.304776
2.451473	1.890977	2.766582	2.573901	1.991043	2.739807	2.318427	1.610088	2.931455	1.503684	2.710017	1.72841	3.290358	3.75401	2.106764	3.515269
2.138091	0.393847	2.006637	2.067071	2.342471	3.458073	2.758612	2.265585	3.157155	2.130209	3.07563	2.361125	2.384514	2.511952	1.406433	1.829522
2.293652	1.181083	2.450666	2.383661	2.082668	2.851049	2.293523	1.463776	3.497126	2.526316	3.266364	2.827337	3.761264	4.501812	2.47671	4.149752
2.213544	0.57254	2.170115	2.189707	2.131997	2.88421	2.35704	1.542309	3.600025	2.845254	3.461953	3.225368	2.643786	2.739693	1.708016	2.328825
2.561064	1.598118	2.780797	2.666854	2.540768	3.687293	2.84354	2.544077	3.048398	1.823696	2.903782	2.154367	2.677378	2.872258	1.687606	2.23143
2.296318	0.342565	2.1321	2.168782	2.423382	3.472123	2.617499	2.107956	2.849907	1.247905	2.728526	1.86013	3.109985	3.479252	2.039915	2.842751
2.794102	2.02967	3.004179	2.861187	2.179538	3.097227	2.431741	1.49904	2.613494	0.715549	2.372966	1.269986	4.03653	4.666888	2.73821	4.297273
2.551917	1.108291	2.665634	2.579824	2.759729	4.179756	3.10187	3.011103	3.041049	1.472793	2.859269	2.055923	3.403591	3.685582	2.266996	3.089371
2.653406	1.435529	2.770475	2.683384	2.351972	3.326701	2.523491	1.93048	3.362682	2.148793	3.269177	2.845	4.061688	4.656536	2.834509	4.305681
2.648915	1.867975	2.999581	2.800585	2.391612	3.378241	2.576556	1.961833	3.934631	3.258338	3.883261	3.754884	3.578137	4.008296	2.374782	3.328096
2.772125	1.767541	2.974646	2.892999	2.688691	3.941312	3.003683	2.939017	3.47124	2.324631	3.405548	2.892674	3.763523	4.165443	2.494166	3.634001
2.702173	1.944109	2.998737	2.840244	2.333264	3.448626	2.62628	2.074312	3.996428	3.383978	3.958909	3.957725	3.16602	3.527674	2.109622	2.760065
2.404745	1.152921	2.642029	2.539342	2.249603	3.153299	2.493139	1.926286	3.365181	2.017727	3.27995	2.648101	3.145488	3.419614	2.061786	2.721923
2.409467	0.799074	2.389266	2.451331	2.30248	3.275357	2.548371	2.076227	3.273212	1.872763	3.176033	2.386473	3.958185	4.476082	2.565937	3.859486
2.148987	0.382319	2.045225	2.135809	2.118184	2.912044	2.392927	1.574851	3.239749	1.945513	3.230831	2.520148	3.027514	3.333001	1.894732	2.5601
2.363318	1.311004	2.505743	2.510519	2.014524	2.756214	2.307235	1.404806	3.374852	2.10745	3.254055	2.645957	3.326274	3.763825	2.098525	2.973761
2.165704	0.785849	2.288054	2.344086	2.276528	3.281534	2.605478	2.048776	3.724084	2.815622	3.596972	3.272169	3.085649	3.443994	1.819608	2.774548
2.389734	1.760985	2.855932	2.726131	2.415605	3.722519	2.756949	2.478668	3.635755	2.609082	3.403339	2.943607	3.007304	3.392664	1.769033	2.680655
2.10571	1.2152	2.407745	2.370794	2.391602	3.643422	2.772678	2.444875	3.768915	3.063916	3.660594	3.311006	2.848061	3.353741	1.650236	2.534766
1.934009	1.152921	2.288054	2.309104	2.145791	3.082142	2.398515	1.695553	3.72563	3.0698	3.601911	3.312254	3.049262	3.578753	1.680791	2.811759
1.955653	0.850544	2.199012	2.315511	2.366404	3.532477	2.70946	2.156348	3.716347	2.960927	3.599441	3.268272	2.688978	3.138227	1.392255	2.437751
2.047364	1.482924	2.272566	2.477689	2.27806	3.193191	2.555196	1.840369	2.967686	1.351124	2.666355	1.800629	2.366176	2.749504	1.0497	1.86507
1.577892	0.330474	1.671743	1.974432	2.193195	3.107335	2.426041	1.572242	3.294712	1.960496	3.072569	2.536653	2.828137	3.304421	1.439646	2.75199
2.042323	1.821533	2.628521	2.699297	2.082668	2.784577	2.285468	1.29086	3.699397	2.912444	3.556212	3.430629	3.541437	4.192595	1.829987	3.642108
1.583337	0.59695	1.931517	2.223248	2.189782	3.153299	2.445351	1.534327	3.5043	2.394673	3.293439	2.89444	2.848061	3.194876	1.268813	2.692063
1.696755	1.291542	2.248036	2.356995	2.048606	2.896204	2.197088	0.99409	2.96351	1.20891	2.670639	1.69573	2.530053	2.655389	1.009729	1.965186
1.512726	0.673111	1.924246	2.173638	2.186369	2.99778	2.293523	1.2436	3.697751	2.637578	3.415926	3.014341	2.833793	3.077823	1.268813	2.59495
1.55062	1.062878	2.053984	2.272803	2.177842	3.046638	2.304201	1.264034	3.281897	1.718606	2.988272	2.1457	2.856829	3.141739	1.146547	2.476055
1.643168	0.926946	2.015436	2.398365	2.355279	3.340544	2.517236	1.642843	3.456566	2.050993	3.21307	2.467959	3.470191	3.9616	1.643156	3.229699
1.752362	1.553598	2.503299	2.772073	2.425735	3.562437	2.583988	1.815333	3.163664	1.450601	2.961984	2.015369	3.578137	4.040754	1.715035	3.535202
1.616262	0.774263	2.228539	2.571608	2.455876	3.506879	2.542964	1.844438	3.137329	1.257151	2.880394	1.809725	3.383369	3.815927	1.571027	3.107461
1.824296	1.544844	2.735773	2.85369	2.265703	3.140441	2.315132	1.359665	3.865101	2.699365	3.739904	3.260915	3.290201	3.576904	1.481733	2.820621
1.725952	0.978961	2.355483	2.627988	2.443632	3.46353	2.465117	1.627992	3.607577	2.009946	3.454263	2.802446	4.023221	4.552143	2.077594	3.958285
1.966416	1.905803	3.029064	3.16425	2.272397	3.217028	2.292997	1.264034	3.677554	2.359166	3.641297	2.964296	3.641093	3.905281	1.674315	3.167662
1.457584	0.343655	2.228539	2.500461	2.164187	2.899874	2.157174	0.977233	3.463859	1.570495	3.187068	2.210441	3.932344	4.367371	1.955404	3.634001
1.84509	1.600436	2.924466	3.010191	2.155598	3.028489	2.246039	1.122105	4.014708	2.771268	3.83774	3.298359	2.853692	2.687709	1.076704	1.754659
1.638181	0.951516	2.65165	2.775299	2.285777	3.2648	2.462119	1.521193	3.837678	2.303052	3.623189	2.924935	3.018233	3.09534	1.258779	2.243694
1.703339	1.430015	2.721603	2.839785	2.252972	3.373513	2.420531	1.387638	3.696198	2.148793	3.536233	2.674255	3.480174	3.6364	1.567695	2.875861
1.397625	0.571779	2.225961	2.46019	2.380552	3.481382	2.461815	1.683102	3.530562	1.718606	3.316516	2.312943	3.069437	3.252106	1.299516	2.292421
1.730504	1.905803	2.904684	2.981602	2.55035	3.873314	2.725311	2.262136	3.594603	1.944542	3.240571	2.157279	3.249572	3.548672	1.478742	2.75199
1.523269	0.962443	2.441427	2.660065	2.559343	3.711084	2.676165	2.11167	3.77958	2.4089	3.58405	2.857731	3.197685	3.380311	1.347519	2.718061
1.577769	1.61517	2.71326	2.795042	2.649191	3.885942	2.910578	2.621316	3.554088	1.833152	3.363626	2.66124	2.575132	2.581942	0.776105	1.635879
1.501469	1.267569	2.505743	2.646547	2.220459	3.137635	2.491891	1.625614	3.492563	1.920565	3.254357	2.496667	2.924888	3.017147	1.085866	2.316706
1.5832	1.562401	2.639817	2.840857	1.956982	2.751267	2.148779	0.955546	3.343303	1.664648	3.104348	2.248908	2.822479	2.950073	1.124541	2.389316
1.512459	1.629999	2.536161	2.63311	2.311939	3.495271	2.538445	1.758401	3.604017	2.443157	3.362596	2.767419	2.390619	2.27093	0.791464	1.785513
1.14238	0.571308	2.059265	2.274148	2.188149	3.303417	2.483717	1.60244	3.773515	2.732107	3.571251	3.187802	2.86805	3.073818	1.109837	2.328825
1.47968	1.506537	2.530274	2.670892	1.98643	2.901485	2.286409	1.106051	3.77189	2.960927	3.645075	3.387115	2.759925	2.866841	1.037959	2.28039
1.419445	1.066164	2.321666	2.556964	2.566305	4.102726	2.992663	2.580892	3.323901	2.000664	3.15657	2.40141	2.373467	2.394277	0.824965	1.926635
1.49597	1.329758	2.465957	2.688494	2.062603	2.985278	2.25598	1.064384	3.108316	1.507842	2.927144	2.2645	3.341815	3.725476	1.564119	3.299286
1.271608	0.749392	2.053984	2.33675	2.127085	3.219284	2.395885	1.458291	3.936856	3.448455	3.889948	3.752621	2.104691	1.848126	0.641629	1.304649
1.610872	1.852395	2.746309	2.914322	2.354426	3.691694	2.648301	1.967983	3.098359	1.60476	2.883415	2.055923	3.594198	3.912644	1.691661	3.613367
1.09572	0.126533	1.79421	2.144813	2.310507	3.523925	2.486552	1.599908	3.663837	2.790238	3.592038	3.258595	2.507952	2.331147	0.826103	1.74144
1.588944	1.798456	2.622905	2.772757	2.266438	3.543106	2.552842	1.699323	3.245837	1.929761	3.0613	2.502081	3.403591	3.725476	1.605521	3.299286
1.143884	0.317311	1.950306	2.281117	2.587421	4.094836	2.947934	2.505876	2.947453	1.141833	2.71447	1.681442	3.709384	4.163507	1.841192	3.782579
1.567274	1.435529	2.537465	2.765103	2.691874	4.317946	3.034583	2.720184	3.130892	1.693505	2.985337	2.134305	2.60505	2.477238	0.883276	1.763918
1.347213	0.687734	2.253258	2.526649	2.491404	3.872241	2.73232	2.247157	3.281897	1.904662	3.090323	2.463358	3.108273	3.074556	1.285893	2.416994
1.374806	1.420856	2.592603	2.768925	2.182954	3.373513	2.464669	1.485645	3.249004	1.823696	2.994144	2.223911	3.709384	4.074433	1.816882	3.574968
1.110319	0.164629	2.040079	2.334175	2.077107	3.066884	2.229979	1.009325	3.327622	1.969146	3.162854	2.47028	3.212514	3.247369	1.387244	2.67265
1.457384	1.691511	2.791213	2.917909	2.30248	3.448976	2.420531	1.411871	3.652735	2.764957	3.556747	3.126049	3.145488	3.099	1.266126	2.646356
1.22117	0.673111	2.152182	2.488837	2.704174	4.261083	2.932612	2.539027	3.36077	2.197767	3.236287	2.58419	3.11435	3.128005	1.290326	2.378056
1.33086	1.329758	2.493905	2.740442	2.488177	3.717626	2.674226	2.066761	3.750433	2.973781	3.753374	3.377585	2.49005	2.060709	0.819702	1.282655
1.291927	0.789612	2.342969	2.611258	2.5652	3.892348	2.737584	2.248777	3.633997	2.541984	3.444028	2.872675	3.692901	3.785622	1.688743	3.170156
1.726821	2.267946	3.023519	3.15573	2.623768	4.116611	2.760609	2.278312	3.028329	1.026552	2.72706	1.642954	3.144869	3.034505	1.310214	2.330035
1.341594	1.209624	2.512734	2.661682	2.685665	4.27839	2.902987	2.537795	3.439772	2.035635	3.254055	2.497702	4.087563	4.435796	1.980816	3.940508
1.573057	1.867975	2.815414	2.996204	2.453357	3.814506	2.569962	1.802168	3.812361	2.875583	3.730527	3.252045	3.041142	2.885675	1.213003	2.096444
1.380058	0.943632	2.35226	2.664628	2.818535	4.475064	2.980615	2.753218	3.899741	3.005527	3.890556	3.498298	3.591044	3.707022	1.55732	2.990572
1.583877	1.497683	2.60215	2.839785	2.533841	3.875831	2.633538	2.057563	3.900585	2.875583	3.773888	3.418012	3.300876	3.376336	1.439026	2.551071
1.380058	0.954394	2.32749	2.690276	2.428994	3.623696	2.522669	1.882289	3.741176	2.555362	3.556747	3.000995	3.673904	3.756749	1.612876	2.891975
1.782581	2.206891	3.133033	3.283367	2.497137	3.774423	2.674226	2.104285	3.829564	2.91864	3.730527	3.293292	3.160735	3.088282	1.28315	2.23143
1.567274	1.644924	2.93926	3.073491	2.367367	3.717626	2.528098	1.775253	3.226206	1.512949	3.017469	2.070846	3.636289	3.696268	1.609144	2.826986
