fnirSoft:	Exported Text File
Version:	4.2
ExportDate:	12/18/2023 11:37:17 AM
VariableInfo
Name:	oxygraph42.hbo.Block1
Size:	1939 x 16
Type:	Numeric
Content:	Hemoglobin
Date:	12/18/2023 11:37:06 AM
Notes:	Oxygenated-hemoglobin concentration changes data saved by Oxygraph from file C:\Users\Anette Johansson\Documents\COBI Studio Data\friska kontroller\2047K\ANETTE_2047K_3_05270841.oxy
Labels:	HBO	DATA
VariableData
Hemoglobin	Hemoglobin	Hemoglobin	Hemoglobin	Hemoglobin	Hemoglobin	Hemoglobin	Hemoglobin	Hemoglobin	Hemoglobin	Hemoglobin	Hemoglobin	Hemoglobin	Hemoglobin	Hemoglobin	Hemoglobin
Optode1	Optode2	Optode3	Optode4	Optode5	Optode6	Optode7	Optode8	Optode9	Optode10	Optode11	Optode12	Optode13	Optode14	Optode15	Optode16
-0.224048	-0.582212	-0.564313	-0.401124	-0.199896	-0.315764	-0.148802	-0.22095	0.010208	-0.157866	0.12795	-0.087867	-0.310581	-0.451957	-0.360028	-0.742848
-0.267922	-0.573919	-0.56398	-0.406775	-0.28502	-0.51588	-0.245845	-0.361592	0.036025	0.047929	0.222041	0.013128	-0.091889	-0.262463	-0.156505	-0.339955
-0.141617	-0.309506	-0.391824	-0.263899	-0.191676	-0.300974	-0.197243	-0.256644	-0.159916	-0.376034	-0.014083	-0.329993	-0.204159	-0.341713	-0.261681	-0.51978
-0.20913	-0.472458	-0.48656	-0.341428	-0.142336	-0.135887	-0.100471	-0.098784	0.094763	0.269121	0.30477	0.332609	0.095427	0.080378	-0.026239	-0.034964
-0.111268	-0.122923	-0.254909	-0.180813	-0.109219	-0.139956	-0.098309	-0.114	0.048952	0.195238	0.275174	0.366634	0.186208	0.211181	-0.014358	0.056082
-0.104525	-0.337338	-0.322728	-0.209986	0.003985	-0.007468	-0.065704	-0.033674	0.003574	0.031618	0.163069	0.195584	0.085292	0.098233	-0.062644	-0.091454
-0.115106	-0.249214	-0.229317	-0.14477	-0.006828	0.05435	-0.081923	-0.131547	0.199421	0.479808	0.405351	0.742776	0.067052	0.11658	-0.041616	-0.124981
-0.066869	-0.228473	-0.24505	-0.132004	0.166971	0.410049	0.159887	0.320093	0.159844	0.391145	0.349239	0.618029	-0.019245	-0.015383	-0.119106	-0.268171
0.004216	-0.088987	-0.175201	-0.005335	0.214606	0.540222	0.209222	0.38802	0.186308	0.393132	0.352152	0.607189	0.158691	0.264933	0.021351	0.009314
-0.033472	-0.15209	-0.15732	0.013156	0.221786	0.489797	0.218299	0.419315	0.126772	0.161211	0.206612	0.446074	0.098153	0.272442	-0.031695	-0.099158
-0.029275	-0.061024	-0.062424	0.121369	-0.069459	0.537833	0.270407	0.048139	0.146803	0.520935	0.116525	0.380379	-0.052873	0.09574	-0.161143	-0.277806
0.038105	-0.11381	0.076275	0.319371	-0.547245	0.621827	0.046478	-1.529215	-1.063494	-0.422352	-0.719039	-0.737398	0.330219	0.984786	0.128523	0.398829
-0.114016	-0.934358	-0.262798	0.089722	-0.578298	0.518098	-0.08376	-1.440171	-1.712895	-0.723284	-1.098516	-1.319395	0.144291	0.959787	0.048652	0.248596
0.121862	-0.346564	-0.000296	0.298052	-0.470474	0.477412	-0.212735	-1.24391	-1.748055	-1.158799	-1.075191	-1.505608	-0.414308	0.159089	-0.353632	-0.661073
-0.169329	-1.096856	-0.453849	-0.150634	-0.301783	0.608182	-0.200377	-0.831614	-1.305518	-0.891642	-0.560523	-0.880801	-0.293592	0.280701	-0.223424	-0.435071
0.070361	-0.373843	-0.089576	-0.002737	-0.236314	0.438306	-0.254385	-0.716362	-1.367164	-1.316292	-0.675335	-1.242456	0.115824	0.678893	0.020758	0.206962
0.071242	-0.63862	-0.249914	-0.1156	-0.267651	0.240898	-0.341805	-0.796377	-0.870337	-0.5223	-0.143789	-0.434985	-0.248266	0.035996	-0.25948	-0.365423
0.030576	-0.50463	-0.242577	-0.205598	-0.218435	0.093189	-0.334275	-0.639667	-0.888129	-0.735175	-0.172017	-0.480299	-0.199517	0.088146	-0.208451	-0.290595
-0.039953	-0.745594	-0.428935	-0.371239	-0.243828	-0.10627	-0.39824	-0.628882	-1.064414	-1.372154	-0.503238	-1.078758	-0.454574	-0.401737	-0.391024	-0.618597
0.157379	-0.255095	-0.148007	-0.122398	-0.130266	0.083979	-0.266742	-0.3849	-0.839895	-1.021122	-0.287528	-0.826294	0.041201	0.256737	-0.040787	0.165458
0.071764	-0.469893	-0.283427	-0.264516	-0.309951	-0.370805	-0.521591	-0.825772	-0.558793	-0.507889	0.009126	-0.187842	-0.44295	-0.357114	-0.442663	-0.647448
0.139119	-0.264465	-0.163352	-0.139755	-0.026257	0.173735	-0.226567	-0.105098	-0.885084	-1.238974	-0.392453	-0.865334	-0.187257	0.004579	-0.292239	-0.185375
0.259515	-0.243708	-0.066368	-0.019243	-0.083929	0.027359	-0.369561	-0.359735	-0.434289	-0.20569	0.131234	0.10968	-0.066099	0.177259	-0.198968	-0.026229
0.312477	-0.129467	0.021188	0.041563	0.039457	0.343927	-0.260156	-0.124076	-0.47746	-0.409051	0.014528	-0.028919	-0.089471	0.272833	-0.233901	-0.021553
0.372869	0.103737	0.176524	0.186237	0.288752	0.814898	0.044822	0.562183	-0.477444	-0.456385	-0.035711	-0.054871	0.109137	0.611108	-0.104823	0.238278
0.499162	0.296061	0.41466	0.449601	0.310402	0.791537	0.000422	0.455435	-0.528153	-0.469921	-0.034112	0.04203	0.050484	0.527304	-0.10795	0.17235
0.48031	0.113886	0.301363	0.407891	0.425962	0.986045	0.040095	0.529917	-0.118971	0.400119	0.37573	0.838389	0.544029	1.247385	0.244964	0.906922
0.518741	0.170408	0.389068	0.525284	0.521295	1.108226	0.131498	0.731126	-0.156294	0.201903	0.304688	0.689498	0.308856	1.027093	0.117936	0.534646
0.682275	0.538724	0.700597	0.794282	0.531175	1.107099	0.11212	0.661103	-0.334658	-0.266769	0.035493	0.236137	0.37291	1.066601	0.190927	0.551599
0.644555	0.433988	0.659469	0.789679	0.734095	1.512353	0.337382	1.110381	0.03608	0.428453	0.44162	0.96544	0.533296	1.305052	0.383221	0.860291
0.602281	0.219813	0.536076	0.709896	0.750826	1.461168	0.331629	1.109561	-0.040908	0.174964	0.340058	0.630184	0.451649	1.130958	0.357998	0.740315
0.683347	0.214586	0.541163	0.738279	0.73711	1.3754	0.317285	1.001882	0.030005	0.258957	0.429545	0.868494	0.578697	1.272047	0.457149	0.903009
0.712886	0.538724	0.692795	0.82678	0.809638	1.559859	0.38906	1.19668	-0.0729	-0.119308	0.273742	0.490148	0.281929	0.791387	0.290675	0.272388
0.729371	0.368945	0.679075	0.823191	0.932149	1.821063	0.544325	1.508603	0.068666	0.235478	0.495561	0.814796	0.451649	0.912305	0.410756	0.48115
0.862861	0.737735	0.920591	1.068219	0.868499	1.611189	0.432194	1.229699	0.1655	0.316646	0.540599	0.814796	0.694601	1.175593	0.622559	0.835139
0.714023	0.283723	0.669269	0.871764	0.819282	1.465008	0.404316	1.217574	0.345701	0.73389	0.771531	1.274366	0.59982	1.088367	0.626582	0.679404
0.855891	0.576252	0.78329	0.925906	0.826465	1.460273	0.444333	1.255855	0.242452	0.417347	0.672608	0.992387	0.470492	0.830654	0.517962	0.515581
0.734033	0.050741	0.541163	0.772638	0.704332	1.231459	0.318341	0.976839	0.114052	0.198326	0.525624	0.683244	0.685984	1.019677	0.676722	0.740178
0.823711	0.538724	0.726014	0.877237	0.736513	1.235875	0.358393	1.122213	0.242452	0.373713	0.621657	0.903863	0.589372	0.992543	0.647535	0.679965
0.698682	0.176969	0.582781	0.751614	0.730901	1.223025	0.366718	1.115655	0.03608	-0.025498	0.393727	0.411524	0.415208	0.621742	0.484639	0.378055
0.75885	0.462396	0.66732	0.860509	0.599547	1.017036	0.219463	0.826803	0.233682	0.39397	0.602748	0.811662	0.474999	0.718444	0.559842	0.499063
0.537625	-0.065095	0.35396	0.603899	0.603067	1.06387	0.274546	0.951002	0.074636	0.128248	0.438614	0.589825	0.487802	0.837728	0.510262	0.483361
0.628258	0.320584	0.500899	0.737243	0.63172	1.130654	0.287894	1.045237	-0.003139	-0.166641	0.361124	0.380379	0.341508	0.591447	0.376949	0.277599
0.488248	-0.175351	0.294558	0.587516	0.563514	1.109074	0.233709	0.926689	-0.168943	-0.485221	0.157579	0.056484	0.318633	0.583592	0.381279	0.311669
0.517998	0.179333	0.464087	0.700347	0.542359	1.097221	0.206323	0.862617	0.157429	0.228098	0.516316	0.731817	0.447164	0.784117	0.426736	0.439379
0.570847	0.4255	0.557881	0.796581	0.547277	1.084791	0.167549	0.789616	0.119492	0.091478	0.45958	0.658979	0.442215	0.753209	0.418751	0.465917
0.537625	0.239404	0.465756	0.787578	0.604463	1.168447	0.245173	0.909422	0.252965	0.406224	0.611333	0.781273	0.318163	0.595724	0.320159	0.26325
0.48031	0.251736	0.413107	0.706994	0.634154	1.315733	0.238553	0.892118	0.158111	0.165056	0.516525	0.68146	0.609933	1.049145	0.531292	0.738457
0.537625	0.352808	0.432227	0.762916	0.73567	1.567855	0.410126	1.256543	0.266174	0.351006	0.629827	0.891998	0.728533	1.260416	0.655686	1.00153
0.628258	0.6141	0.643681	0.925337	0.618096	1.32857	0.273648	0.859529	0.305879	0.523021	0.741411	1.037923	0.703165	1.251964	0.630877	0.876817
0.461442	0.14762	0.299997	0.657824	0.71406	1.557426	0.372702	1.059931	0.52403	0.849069	0.938966	1.394021	0.748521	1.25915	0.651691	0.858852
0.518741	0.340816	0.421079	0.700347	0.589659	1.261167	0.224826	0.757656	0.377367	0.56615	0.774356	0.915166	0.714353	1.1321	0.597629	0.85695
0.443046	-0.192939	0.24072	0.580163	0.585909	1.192926	0.215692	0.677293	0.474624	0.634248	0.837439	0.922569	0.664989	0.982713	0.605932	0.730245
0.461994	0.01367	0.248843	0.60303	0.598385	1.290772	0.282027	0.810774	0.345701	0.325631	0.720647	0.693476	0.612177	0.930826	0.522247	0.568519
0.435621	-0.106094	0.16368	0.500741	0.619479	1.32857	0.387017	0.986041	0.300679	0.201903	0.657564	0.506774	0.583011	0.81388	0.464258	0.457972
0.557272	0.344904	0.403555	0.718278	0.598385	1.223162	0.310662	0.863972	0.1655	-0.076155	0.489558	0.151696	0.601364	0.840749	0.459966	0.526079
0.39359	-0.011506	0.239464	0.541725	0.552332	1.101481	0.272659	0.74745	0.357947	0.258388	0.681247	0.549405	0.70174	0.982713	0.505589	0.636954
0.424082	0.264017	0.351035	0.620072	0.508799	1.00044	0.218299	0.681469	0.261008	0.038332	0.594092	0.337761	0.446668	0.668529	0.383994	0.388818
0.533997	0.458128	0.435275	0.727362	0.502637	1.030072	0.211764	0.635292	0.286512	0.16772	0.66266	0.410486	0.46502	0.695418	0.358528	0.465917
0.503491	0.600165	0.435275	0.708437	0.429555	0.850943	0.212896	0.62217	0.395566	0.39397	0.778902	0.701556	0.523669	0.848165	0.409389	0.551635
0.218717	-0.08829	0.005656	0.352654	0.553517	1.130852	0.388448	1.118453	0.227576	-0.001464	0.575092	0.259236	0.396135	0.611108	0.350718	0.381249
0.48031	0.702363	0.365402	0.652852	0.385014	0.876132	0.220535	0.648466	0.394244	0.460859	0.7954	0.686147	0.259117	0.443122	0.237657	0.193746
0.290842	0.195898	0.048711	0.38216	0.463149	0.960423	0.275355	0.886634	-0.021677	-0.455582	0.27168	-0.145973	0.68336	1.112227	0.513666	0.875063
0.294605	0.319346	0.091745	0.412277	0.312305	0.723404	0.12885	0.576222	0.303657	0.314755	0.705683	0.539752	0.080573	0.262009	0.115317	-0.012483
0.241515	0.053521	-0.063877	0.285387	0.268756	0.721851	0.131498	0.484204	0.233682	0.077657	0.590004	0.310816	0.190262	0.39565	0.16515	0.113924
0.336173	0.438098	0.089588	0.3922	0.397621	0.972757	0.314216	0.87777	-0.149753	-0.751586	0.167728	-0.324139	0.465564	0.849608	0.38301	0.59412
0.207207	0.030236	-0.097241	0.262086	0.365302	0.868406	0.238553	0.70432	0.04238	-0.368738	0.355146	-0.013177	0.30029	0.583592	0.295205	0.361933
0.603158	0.884593	0.343029	0.630414	0.450725	1.030868	0.320962	0.795775	-0.105124	-0.681941	0.220293	-0.268926	0.713058	1.110556	0.559448	0.980111
0.470299	0.51114	0.162601	0.431641	0.398672	0.902062	0.256557	0.684396	0.101026	-0.339564	0.423645	0.135144	0.6175	1.004748	0.567571	0.800608
0.600949	0.725494	0.277009	0.572785	0.338863	0.705603	0.166393	0.428329	0.269536	0.027198	0.600737	0.372601	0.572373	0.912305	0.512363	0.714069
0.628636	0.431937	0.183274	0.538312	0.496182	1.038018	0.346976	0.757656	0.41328	0.279454	0.760868	0.612093	0.535355	0.830654	0.474464	0.601224
0.871664	1.109993	0.574822	0.794282	0.534844	1.030072	0.383232	0.797147	0.544474	0.421824	0.864082	0.792062	1.241749	1.821744	1.004673	1.669014
0.730126	0.477	0.31583	0.576724	0.486971	0.90642	0.320023	0.631049	0.805322	0.946921	1.144836	1.222854	0.610035	0.861734	0.545134	0.634473
0.95898	1.027921	0.576532	0.807697	0.700854	1.311612	0.584323	1.098475	0.441611	0.044217	0.785956	0.459472	0.953233	1.275716	0.798345	1.080621
0.913263	0.850565	0.447689	0.655711	0.653352	1.168597	0.537406	0.962501	0.559084	0.296265	0.891609	0.63438	1.15945	1.642121	0.967646	1.433612
0.944502	0.821415	0.47495	0.687011	0.498206	0.840652	0.33439	0.531998	0.519634	0.228607	0.876411	0.54251	1.196302	1.560144	0.988334	1.411475
0.850865	0.605488	0.299324	0.508633	0.620844	1.088653	0.464778	0.760941	0.836959	0.869267	1.254721	1.178362	1.142574	1.47705	0.975956	1.316798
0.939772	0.916422	0.43	0.611318	0.775805	1.361117	0.667416	1.2164	0.589978	0.262487	0.992761	0.575715	1.219037	1.669924	1.026296	1.540615
0.800434	0.572678	0.333475	0.507945	0.617115	1.026342	0.494254	0.833078	0.597387	0.367148	1.03284	0.567578	0.96767	1.242936	0.815119	1.028241
0.799654	0.638824	0.348589	0.469028	0.605873	0.98461	0.461747	0.826803	0.842868	0.874962	1.275112	1.032099	1.040695	1.354073	0.899829	1.211267
0.663816	0.494841	0.2349	0.30392	0.603342	0.968765	0.495344	0.883698	0.367873	-0.22993	0.691135	-0.070404	0.951529	1.096034	0.798345	1.009613
0.632888	0.326202	0.156453	0.249423	0.38434	0.526314	0.226022	0.330697	0.549388	0.319173	0.952786	0.346145	0.627972	0.607056	0.5071	0.44471
0.524849	0.144548	0.025559	0.085762	0.45797	0.729973	0.356201	0.670766	0.430796	0.088129	0.84853	0.212936	0.899881	1.022093	0.701438	0.92212
0.54367	0.319346	0.110209	0.120535	0.302074	0.378381	0.171369	0.299442	0.236889	-0.274158	0.645426	-0.111582	0.846732	0.965134	0.63883	0.903009
0.482212	0.063475	0.005656	0.060203	0.283981	0.296553	0.069501	0.159841	0.468573	0.240922	0.896453	0.43453	0.76422	0.85555	0.546523	0.78306
0.363434	-0.255786	-0.149403	-0.083958	0.180688	0.132193	-0.042264	-0.084382	0.28205	-0.018606	0.768697	0.281778	0.438419	0.476076	0.289331	0.213111
0.374914	-0.149578	-0.029967	0.011314	0.268756	0.333229	0.040095	0.162893	0.500128	0.400119	0.947087	0.652378	0.520819	0.576664	0.290716	0.370945
0.512928	0.214586	0.110209	0.144696	0.32773	0.528169	0.135347	0.252501	0.107682	-0.448862	0.462557	-0.125496	0.396923	0.422438	0.255945	0.222478
0.405611	-0.114311	-0.087618	0.012901	0.439223	0.724685	0.230944	0.513821	0.42466	0.245367	0.84414	0.621951	0.401516	0.484011	0.243819	0.231793
0.605233	0.527817	0.285147	0.290007	0.435657	0.717102	0.242345	0.501003	0.237452	-0.163848	0.573806	0.165277	0.741439	0.941059	0.513075	0.714297
0.54404	0.192778	0.182251	0.267412	0.440217	0.764773	0.244127	0.44761	0.218392	-0.141576	0.597984	0.18646	0.844109	1.088724	0.609212	0.878103
0.597787	0.425873	0.302688	0.36356	0.618338	1.089145	0.39456	0.721038	0.348981	0.124136	0.718923	0.455201	0.836922	1.160847	0.621165	0.870344
0.582779	0.097579	0.131529	0.292804	0.619614	1.072359	0.41189	0.737715	0.453409	0.27267	0.809897	0.581522	0.670971	0.853888	0.5061	0.599673
0.784119	0.618062	0.499315	0.610472	0.759655	1.403143	0.595409	1.098475	0.402204	0.207705	0.813434	0.564581	0.679975	0.834455	0.531858	0.574064
0.679833	0.31021	0.28167	0.434291	0.68216	1.256742	0.501121	0.893787	0.603535	0.454499	0.9817	0.876981	0.577823	0.639042	0.455609	0.338141
0.799654	0.76936	0.56852	0.646465	0.714579	1.428135	0.631248	1.095545	0.473948	0.205187	0.873547	0.646803	0.739431	0.838406	0.574373	0.635856
0.81152	0.548336	0.499315	0.65397	0.786175	1.542807	0.714196	1.309452	0.51425	0.303106	0.943945	0.726488	0.656841	0.655198	0.535333	0.442136
0.876386	0.90297	0.661386	0.773093	0.590752	1.139173	0.457172	0.747681	0.664064	0.559865	1.118772	1.088634	0.902955	1.013825	0.75571	0.87922
0.80699	0.728585	0.497783	0.665373	0.55589	1.068122	0.45797	0.737715	0.46133	0.124136	0.937241	0.734639	0.869906	0.947232	0.704956	0.7835
0.884698	0.901575	0.586226	0.770634	0.592123	1.176963	0.508632	0.820451	0.212529	-0.444593	0.601034	0.175126	0.87556	0.916356	0.670517	0.713197
0.741255	0.548336	0.324052	0.574421	0.569649	1.055707	0.451155	0.797147	0.264263	-0.346946	0.649217	0.286062	0.84468	0.979013	0.652784	0.702604
0.790564	0.91465	0.53781	0.711619	0.547189	0.993164	0.45492	0.767451	0.472083	0.171712	0.865948	0.773767	0.694129	0.77205	0.530854	0.46081
0.790564	0.76936	0.451368	0.681419	0.55589	0.980309	0.4368	0.790716	0.471007	0.234533	0.874362	0.716781	0.698615	0.690399	0.522946	0.435471
0.862104	1.081497	0.620327	0.774095	0.539865	0.964602	0.456124	0.871766	0.367058	-0.041509	0.723508	0.569271	0.726173	0.885068	0.531858	0.532062
0.696981	0.86249	0.405115	0.550506	0.506286	0.91903	0.470421	0.918569	0.379465	0.074914	0.741411	0.543006	0.65446	0.710707	0.445405	0.457121
0.650778	0.568591	0.248843	0.489536	0.416896	0.811478	0.370458	0.707506	0.269536	-0.041509	0.648318	0.32024	0.410658	0.342133	0.277173	0.147962
0.508802	0.18956	0.032214	0.302143	0.27545	0.601291	0.202502	0.428329	0.411291	0.277579	0.749902	0.637373	0.41538	0.390194	0.246815	0.051639
0.554284	0.4255	0.23546	0.426235	0.2067	0.425953	0.11212	0.275777	0.249407	-0.100806	0.594092	0.36259	0.41538	0.486991	0.230119	0.206889
0.662512	0.5072	0.335002	0.501721	0.312932	0.680386	0.250708	0.588443	0.302249	0.09821	0.687658	0.462651	0.855571	1.02445	0.528327	0.818125
0.597787	0.180104	0.199792	0.3764	0.398967	0.889169	0.376484	0.817245	0.452471	0.31267	0.817727	0.788983	0.846891	1.111097	0.557543	0.852757
0.721341	0.511436	0.408116	0.516432	0.546051	1.230655	0.57769	1.20802	0.609665	0.69051	1.002438	1.133799	0.740374	1.021465	0.493739	0.731617
0.835283	0.572678	0.468145	0.607177	0.447227	1.030603	0.444333	0.757656	0.532092	0.528921	0.969286	1.003532	0.657733	0.844872	0.46531	0.483428
0.915828	0.879461	0.62965	0.720297	0.523246	1.168597	0.490497	0.830852	0.604774	0.597212	1.042556	1.119522	0.751517	1.038041	0.566938	0.623241
0.726945	0.144548	0.309791	0.485302	0.708537	1.471495	0.696076	1.327917	0.614227	0.614054	1.027066	1.081962	0.750896	0.951482	0.559052	0.53712
0.995026	0.798133	0.738034	0.883066	0.587757	1.210302	0.528522	0.830807	0.7631	0.828167	1.200515	1.312284	1.306095	1.683519	0.985067	1.379178
1.027548	0.800157	0.707787	0.843329	0.682202	1.324431	0.64865	1.044599	0.648628	0.600649	1.079871	1.097464	1.343896	1.788023	1.070466	1.449916
1.081837	1.063612	0.795332	0.941786	0.679677	1.252747	0.608457	0.931134	0.821036	0.879649	1.239236	1.359952	1.283103	1.648537	1.014973	1.300314
0.988884	0.621918	0.603816	0.80795	0.639195	1.133789	0.556682	0.689886	0.997921	1.07463	1.404672	1.642379	1.20346	1.459833	0.976565	1.142434
1.087533	1.058143	0.807285	0.961928	0.649434	1.155573	0.633671	0.84097	1.116014	1.406866	1.561204	1.91492	1.027166	1.346483	0.869616	0.852164
0.812301	0.316704	0.423145	0.68211	0.800426	1.430149	0.782826	1.295316	0.798243	0.621965	1.159157	1.112226	0.918681	1.09716	0.750286	0.641826
0.829802	0.850687	0.618115	0.793206	0.665833	1.176667	0.59398	0.817589	1.067788	1.260334	1.504651	1.723751	0.810655	0.994763	0.682276	0.502286
0.783278	0.679973	0.472044	0.678606	0.742423	1.315733	0.710535	1.083632	0.908224	0.909299	1.282259	1.219378	0.786524	0.908552	0.661675	0.530174
0.94087	1.249511	0.78329	0.915503	0.836252	1.466275	0.80099	1.371262	0.462022	-0.052636	0.758522	0.315601	0.735922	0.838093	0.597445	0.388483
0.709554	0.609981	0.435267	0.597328	0.593285	1.026342	0.529918	0.860747	0.761512	0.659313	1.155512	1.045116	0.642071	0.725545	0.547732	0.306786
0.827638	1.116227	0.647714	0.709516	0.633348	1.105679	0.620789	1.045237	0.609665	0.2519	0.940402	0.618029	0.610035	0.581821	0.504974	0.287988
0.735981	0.62231	0.406635	0.571071	0.466136	0.777882	0.39456	0.500181	0.387453	-0.121396	0.729205	0.225969	0.866937	0.918761	0.624912	0.654168
0.750467	0.86763	0.473702	0.568352	0.306997	0.423811	0.201372	0.230768	0.549388	0.301601	0.870382	0.663792	1.034516	1.217468	0.768639	0.981896
0.647112	0.507262	0.232576	0.405828	0.270239	0.412463	0.227125	0.320093	0.159879	-0.557827	0.435599	-0.061143	0.586414	0.621742	0.412931	0.291043
0.803896	0.93172	0.446555	0.597404	0.39203	0.639335	0.302988	0.44204	0.256946	-0.324944	0.51355	0.187351	0.904109	1.081382	0.650493	0.77461
0.593548	0.195898	0.119448	0.344982	0.311439	0.466843	0.231927	0.28208	0.591682	0.497478	0.889564	0.907731	0.508075	0.636069	0.386995	0.203691
0.80142	0.908257	0.518483	0.623807	0.386908	0.630613	0.299227	0.457986	0.514994	0.357238	0.827937	0.803169	0.567881	0.702837	0.38386	0.231793
0.832362	0.908257	0.604657	0.689534	0.429035	0.687872	0.263205	0.37595	0.418506	0.081545	0.660458	0.573164	0.631586	0.699207	0.385178	0.23447
0.894326	1.058518	0.639886	0.71401	0.404114	0.596863	0.198673	0.293952	0.412333	0.104895	0.651752	0.629714	1.053185	1.408862	0.760312	1.032946
0.891927	0.831836	0.610173	0.705988	0.521119	0.852776	0.380987	0.67478	0.225137	-0.251886	0.480285	0.277241	0.790914	0.959162	0.57797	0.541079
0.899119	0.908257	0.55716	0.674785	0.497218	0.877042	0.351668	0.549409	0.316128	-0.039422	0.549722	0.346609	0.790914	1.013825	0.573532	0.57561
0.768591	0.421219	0.34988	0.518774	0.475739	0.855333	0.318341	0.558469	0.347532	-0.078016	0.558588	0.384478	0.733992	0.962469	0.540721	0.542276
1.016504	1.07582	0.7598	0.835822	0.500772	0.859707	0.307864	0.512611	0.32938	-0.127116	0.528578	0.195435	0.85989	1.118606	0.688054	0.774913
0.985319	0.89124	0.724326	0.767483	0.522206	0.885613	0.301214	0.556231	0.466811	0.094076	0.685692	0.537163	0.749235	0.951447	0.585967	0.488429
0.993774	0.977631	0.787456	0.766393	0.544659	0.827839	0.315501	0.585928	0.726378	0.640263	0.983085	0.947661	0.921663	1.041188	0.713154	0.774718
1.002224	0.646812	0.615343	0.676735	0.670893	1.126478	0.512906	0.96553	0.506175	0.181769	0.757969	0.363712	1.115585	1.215552	0.793892	0.983207
0.95898	0.625839	0.578202	0.607816	0.509445	0.769159	0.361303	0.6218	0.506175	0.299524	0.791141	0.523146	0.84253	0.853888	0.615324	0.539365
0.950579	0.74277	0.688887	0.653885	0.478312	0.757227	0.346976	0.625204	0.603535	0.460895	0.920948	0.720572	0.87703	0.853808	0.620526	0.52453
0.873781	0.711882	0.639398	0.570184	0.516062	0.824266	0.355444	0.569637	0.526841	0.191416	0.804076	0.498425	0.970178	0.970037	0.721866	0.70575
0.807834	0.474656	0.508921	0.44313	0.544659	0.790848	0.311687	0.608919	0.452471	0.031618	0.729978	0.302653	0.879916	0.850086	0.640286	0.617868
0.939772	0.695197	0.613659	0.565383	0.361716	0.457818	0.094911	0.121807	0.68093	0.640263	1.082205	0.927719	1.057321	1.143055	0.793892	0.973597
0.861861	0.568591	0.508921	0.456074	0.461011	0.642375	0.254554	0.500181	0.446255	0.09821	0.808291	0.512873	1.042599	1.165885	0.784866	0.87922
0.823396	0.490951	0.466786	0.426557	0.383407	0.496726	0.149537	0.350909	0.395221	0.094076	0.803407	0.454417	0.753645	0.694983	0.560143	0.463033
0.869143	0.372747	0.394649	0.4381	0.400612	0.673167	0.206647	0.452703	0.492729	0.356134	0.896234	0.652262	0.905756	0.900454	0.700598	0.774913
0.726397	0.195898	0.316986	0.353836	0.458441	0.711564	0.297395	0.631949	0.303432	-0.083226	0.634122	0.307629	0.733992	0.749189	0.561108	0.446752
0.891927	0.661883	0.619909	0.601232	0.57584	0.952019	0.376484	0.823637	0.3819	0.262487	0.791141	0.610106	0.872766	0.989686	0.616128	0.636722
0.799654	0.486968	0.499315	0.499258	0.604545	1.018241	0.401337	0.840589	0.401544	0.262487	0.824306	0.701351	0.920143	1.111097	0.62419	0.688237
0.815196	0.503291	0.465386	0.493512	0.634611	1.093302	0.455566	0.906334	0.428242	0.228607	0.804076	0.685493	0.79698	0.95794	0.5071	0.516774
0.901307	0.609981	0.521449	0.56944	0.643368	1.064124	0.451831	0.932883	0.382517	0.117149	0.75558	0.528866	0.991054	1.251964	0.650493	0.851956
0.891927	0.730952	0.637615	0.620072	0.605678	0.98461	0.357485	0.77429	0.435262	0.27267	0.867794	0.773331	1.144265	1.463735	0.789826	1.059443
0.81152	0.51558	0.526636	0.512266	0.657135	1.018445	0.362181	0.744225	0.310965	0.006986	0.719532	0.533931	1.332369	1.724881	0.891286	1.454022
1.028558	1.052723	0.830854	0.803303	0.712349	1.055707	0.375634	0.837363	0.468388	0.333612	0.907719	0.800053	0.928654	1.091264	0.59041	0.731617
0.924176	0.666539	0.6314	0.652149	0.541621	0.675867	0.166313	0.358816	0.468388	0.296265	0.840955	0.76935	0.986906	1.175593	0.620526	0.723063
1.037061	1.000901	0.807285	0.775245	0.533872	0.66221	0.205299	0.434484	0.6393	0.734594	1.135656	1.219378	0.866937	0.985074	0.548696	0.61977
0.986601	0.937077	0.712265	0.707981	0.869388	1.340122	0.606118	1.309452	0.527711	0.340414	0.956345	0.804007	1.204344	1.423014	0.819393	1.17966
1.021431	0.977631	0.702454	0.683362	0.787656	1.172608	0.544858	1.116336	0.586131	0.516146	1.06476	0.76231	1.128096	1.398827	0.771717	0.966721
1.034782	0.882531	0.707787	0.723179	0.595467	0.80048	0.349823	0.607985	0.521378	0.408423	0.963031	0.612093	1.058907	1.273445	0.745858	0.879028
0.893989	0.745306	0.53777	0.526021	0.634459	0.959449	0.392888	0.744315	0.507926	0.316646	0.943945	0.559332	1.016981	1.203097	0.715451	0.835052
0.855392	0.457258	0.41616	0.478213	0.781269	1.318189	0.635167	1.23752	0.4161	0.021554	0.822791	0.363878	0.838155	0.869546	0.583904	0.564907
1.081837	1.063612	0.759592	0.815456	0.712349	1.126704	0.552275	1.036271	0.552848	0.417347	1.003775	0.610106	1.032301	1.160847	0.725117	0.974745
0.968499	0.696581	0.513257	0.619514	0.524238	0.702737	0.322167	0.545967	0.646654	0.728327	1.1427	0.961579	1.092687	1.297767	0.763497	1.052909
1.139608	1.203415	0.811277	0.851536	0.619496	0.814898	0.397558	0.790716	0.697505	0.721779	1.213125	1.021581	0.982123	1.083734	0.720697	0.922769
1.163947	1.103512	0.76141	0.859358	0.69854	0.980855	0.487381	0.953297	0.448636	0.124136	0.867794	0.446074	1.142719	1.260849	0.796975	1.036903
1.045561	0.865614	0.652585	0.752616	0.66212	0.872732	0.469275	0.950191	0.369735	0.094076	0.873547	0.454417	0.933086	1.085118	0.681381	0.720946
1.097535	0.892018	0.665594	0.792684	0.678452	0.927054	0.491117	0.956385	0.245337	-0.244966	0.682952	0.116877	1.025576	1.178318	0.745858	0.896678
1.296906	1.373196	0.87688	1.019719	0.668367	0.905626	0.4368	0.757656	0.370157	0.065878	0.835091	0.420382	1.376021	1.663358	1.027623	1.478069
1.20762	0.962568	0.719271	0.89769	0.621687	0.779681	0.374694	0.657638	0.612139	0.647046	1.128586	0.922569	1.153089	1.345407	0.874257	1.018041
1.337318	1.355462	0.930719	1.088906	0.801832	1.06387	0.591306	1.104348	0.711175	0.759204	1.223067	1.079349	0.891117	0.959395	0.655324	0.616137
1.412966	1.408728	0.986777	1.115208	0.933442	1.307476	0.717665	1.316497	0.568175	0.415147	1.093945	0.773331	1.182455	1.29855	0.830523	0.931491
1.362007	1.285246	0.914792	1.077731	0.899242	1.2526	0.688716	1.178843	0.561816	0.377761	1.06051	0.620344	1.350572	1.57841	0.942069	1.169158
1.277584	0.925869	0.812447	0.995077	0.951347	1.282231	0.706594	1.199724	0.556102	0.30592	1.025245	0.498949	1.461544	1.7463	1.075114	1.370981
1.326877	1.314539	1.002631	1.065247	0.932509	1.248522	0.670162	1.08261	0.569596	0.261331	1.065592	0.617426	1.537468	1.795064	1.122426	1.477245
1.221426	1.008853	0.854751	0.95537	1.001941	1.324431	0.750114	1.28366	0.496812	0.022108	0.967557	0.398198	1.365431	1.522768	0.967653	1.160585
1.428811	1.595198	1.214143	1.237458	1.114515	1.581199	0.913586	1.597928	0.55017	0.171887	1.044429	0.393676	1.388494	1.502303	1.023551	1.204474
1.326877	1.291124	1.030743	1.040292	1.119275	1.504499	0.931706	1.654738	0.97365	0.879213	1.486821	1.188463	1.287721	1.338869	0.932871	0.904521
1.254903	1.09269	0.920705	0.896588	0.981536	1.239873	0.804651	1.349196	0.802277	0.545241	1.292691	0.757243	1.15503	1.077358	0.851442	0.817022
1.279447	0.875121	0.888814	0.772638	0.962769	1.235735	0.822764	1.337703	0.97365	0.841432	1.486821	1.095878	1.373612	1.323384	0.980706	1.072045
1.344231	1.197508	0.988091	0.698308	0.807027	0.767819	0.637429	0.975013	0.82725	0.633802	1.288207	0.842484	1.159296	1.120374	0.774768	0.59759
1.260123	0.79558	0.849009	0.570184	0.915561	0.935514	0.768432	1.217574	0.805862	0.609146	1.234808	0.705248	1.06206	0.896482	0.675813	0.499325
1.384748	1.145117	0.983488	0.680675	0.820931	0.735239	0.597747	0.814222	0.701162	0.387963	1.141328	0.520458	0.817657	0.543416	0.491507	0.131249
1.34453	0.952635	0.900695	0.580558	0.897705	0.85703	0.714196	1.08664	0.732372	0.534099	1.160791	0.549405	1.205589	1.170771	0.749553	0.704175
1.293429	0.733202	0.777457	0.48468	0.95871	0.943551	0.775632	1.292431	1.013805	1.065748	1.445819	0.974594	1.323379	1.268299	0.826693	0.817903
1.275554	0.729849	0.763189	0.455336	0.995388	1.035046	0.782921	1.217574	0.680145	0.370998	1.124595	0.446074	1.367922	1.3287	0.852056	0.949209
1.27045	0.745306	0.777457	0.496051	1.032072	1.072478	0.855454	1.352021	1.039663	1.152424	1.548299	1.198231	1.533506	1.628532	0.946625	1.141086
1.319654	0.812374	0.878854	0.566234	1.116898	1.230655	0.953361	1.578649	0.798243	0.609146	1.273669	0.735689	1.213747	1.132528	0.69743	0.63256
1.413434	0.95416	0.954453	0.673782	1.148416	1.311048	0.96825	1.562851	0.82725	0.689737	1.347228	0.923127	1.357196	1.336153	0.809622	0.826771
1.45422	0.906612	0.958722	0.6824	1.314261	1.569903	1.167835	1.990784	0.904018	0.772217	1.420073	0.9874	1.370283	1.374293	0.821627	0.728462
1.466668	0.762046	0.906797	0.702308	1.184803	1.332694	1.030544	1.633714	1.058042	1.106745	1.605404	1.226304	1.576608	1.625565	0.993286	1.081452
1.3886	0.684269	0.882685	0.575209	1.147881	1.32857	0.964909	1.461774	1.116428	1.141124	1.642007	1.315416	1.750392	1.850855	1.152614	1.373218
1.463149	0.889639	1.048771	0.732617	1.110965	1.27805	1.005175	1.458877	0.976959	0.732509	1.442152	0.930458	1.646371	1.591689	1.088075	1.214161
1.488076	0.812374	1.043041	0.74124	1.247144	1.463477	1.12191	1.748244	0.902649	0.51811	1.354548	0.718225	1.691965	1.625565	1.170064	1.294933
1.496592	0.948811	1.131771	0.79211	1.04207	1.021398	0.851801	1.181161	0.984707	0.757205	1.501655	1.050804	1.946709	2.054132	1.316366	1.655057
1.441783	0.790912	1.038642	0.726952	1.070572	1.080783	0.866373	1.181848	0.896413	0.549107	1.416512	0.876546	1.873672	1.886001	1.286549	1.51568
1.466108	0.857264	1.126736	0.820017	1.127307	1.168447	0.902882	1.319874	0.916533	0.600649	1.486557	0.938403	1.534115	1.40723	1.014577	0.912496
1.423931	0.82693	1.059859	0.737243	1.113996	1.210574	0.931936	1.358932	0.862466	0.562787	1.424566	0.792062	1.565601	1.465347	1.075084	1.054898
1.349815	0.62231	0.938651	0.653069	1.114515	1.189393	0.924295	1.349196	0.789673	0.34572	1.287174	0.494563	1.355437	1.133094	0.88883	0.707388
1.258177	0.609981	0.858951	0.542531	1.018883	1.059983	0.83707	1.169812	0.96919	0.752498	1.437384	0.911418	1.696728	1.606264	1.139809	1.231322
1.298754	0.989291	1.019246	0.600304	0.934291	0.881335	0.743187	1.000421	0.78852	0.45633	1.282741	0.573107	1.476606	1.235458	0.980096	0.930777
1.245915	0.73773	0.918605	0.572785	0.997817	0.993164	0.826342	1.178843	0.951834	0.885322	1.468899	0.953166	1.238899	0.888491	0.803683	0.604442
1.282958	1.006474	1.060264	0.629426	0.946422	0.881912	0.725163	1.08664	1.037991	0.954896	1.479159	1.09946	1.34474	1.100534	0.843202	0.695101
1.233665	0.819802	0.960099	0.553139	0.94469	0.96873	0.789765	1.184163	0.945754	0.90476	1.440458	1.061434	1.632601	1.532134	1.109229	1.270974
1.198465	0.53599	0.767593	0.499258	0.946422	0.939721	0.761156	1.143064	1.095973	1.287316	1.615448	1.459013	1.533506	1.380172	0.980825	1.018041
1.179058	0.646812	0.811277	0.492757	0.928531	0.881912	0.764724	1.199469	1.158471	1.417933	1.700913	1.664236	1.69276	1.68275	1.131121	1.239825
1.199854	0.444625	0.683477	0.42203	1.001473	1.059784	0.876225	1.39807	0.902649	0.898543	1.382802	1.155749	1.846574	1.87123	1.272155	1.568109
1.461224	1.11544	1.082548	0.758289	1.009887	1.114137	0.905547	1.411452	1.009463	1.141124	1.512312	1.346683	1.338539	1.10917	0.907353	0.702604
1.347913	0.696592	0.864675	0.582515	0.901709	0.876132	0.793789	1.14276	1.354344	1.803291	1.833561	1.975096	1.623141	1.584351	1.109609	1.081292
1.370984	0.77115	0.966657	0.685226	0.965224	0.946413	0.808288	1.241554	1.061997	1.121044	1.522841	1.357258	1.606841	1.463133	1.075084	1.010574
1.518095	1.010768	1.124003	0.825701	1.138798	1.324673	1.019491	1.669221	1.24738	1.450783	1.690937	1.717692	1.653471	1.590141	1.152786	1.134556
1.502116	1.017368	1.121536	0.824602	1.051845	1.101039	0.888239	1.371246	1.134562	1.291759	1.610749	1.558017	2.047504	2.196264	1.45087	1.710594
1.454268	0.779885	0.962837	0.71925	1.263622	1.51377	1.14287	1.857737	0.965933	0.981101	1.425809	1.222916	2.078062	2.153257	1.493752	1.797946
1.51305	1.020986	1.006921	0.711733	1.247439	1.505802	1.106673	1.713026	1.099905	1.23213	1.589874	1.443522	1.842882	1.871977	1.329513	1.477245
1.354562	0.53847	0.8107	0.54626	1.081376	1.185241	0.939314	1.365187	1.336726	1.676702	1.828664	1.840408	2.070615	2.203038	1.498931	1.782254
1.57373	1.220634	1.172779	0.809778	1.189998	1.433281	1.066361	1.661014	1.063833	1.185624	1.546033	1.221779	1.881351	1.829435	1.378055	1.454938
1.29063	0.567525	0.782875	0.441929	1.284284	1.619677	1.186746	1.937634	1.267579	1.576908	1.778587	1.689412	1.838841	1.794067	1.352271	1.490714
1.420552	1.033066	1.000429	0.629351	1.04039	1.151674	0.902799	1.31069	1.168901	1.555318	1.735109	1.520237	1.796685	1.80185	1.334332	1.373218
1.385012	0.775564	0.850962	0.550607	1.121191	1.319837	0.989933	1.57085	0.874924	0.847975	1.383512	0.911418	1.519068	1.38695	1.152834	0.957084
1.324781	0.79229	0.841032	0.470429	1.220245	1.629322	1.181509	1.981718	0.995472	1.070576	1.452885	1.116998	1.76606	1.717896	1.30386	1.346089
1.312458	0.879738	0.86692	0.507237	1.030287	1.151724	0.923951	1.424583	0.649467	0.284636	1.065592	0.389124	1.666316	1.662036	1.226199	1.222767
1.232916	0.705056	0.759592	0.434291	1.016477	1.168484	0.927474	1.421762	0.774778	0.620685	1.202892	0.695759	1.731834	1.774181	1.268701	1.395425
1.291441	0.763188	0.79342	0.518774	0.986406	1.12667	0.844404	1.301784	1.09818	1.319854	1.538397	1.339912	1.743245	1.767145	1.26035	1.398155
1.282734	0.74651	0.775573	0.500741	1.018883	1.231247	0.916506	1.532997	0.983934	1.060026	1.417463	1.284711	1.562685	1.604942	1.152786	1.107897
1.307336	0.921191	0.936525	0.606388	1.027885	1.223025	0.898503	1.500324	0.985824	1.07463	1.435192	1.364175	1.348906	1.275579	1.010498	0.807928
1.300145	0.467599	0.779303	0.565109	0.939928	0.991676	0.696076	1.039449	0.649467	0.449443	1.142597	0.847875	1.435845	1.483532	1.053467	0.966163
1.438269	1.003869	1.077823	0.773611	1.001941	1.084345	0.757592	1.181161	0.80855	0.545241	1.197311	1.046871	1.378644	1.412176	1.018969	0.895425
1.328387	0.467599	0.860899	0.671345	1.107339	1.214806	0.848142	1.434557	0.955244	1.018707	1.455548	1.433629	1.562685	1.631371	1.170064	1.196794
1.49862	0.916422	1.1858	0.966697	1.113996	1.24428	0.859056	1.377226	0.842392	0.620685	1.277243	1.171774	1.26653	1.196735	0.949538	0.688213
1.376219	0.609287	1.020632	0.802186	1.019933	1.05466	0.721337	1.072994	0.98315	0.930321	1.486557	1.556084	1.420907	1.509094	1.105276	1.009856
1.360268	0.75076	1.074688	0.858722	1.067464	1.159322	0.779156	1.222753	1.001604	0.917035	1.52035	1.538247	1.275049	1.288865	1.005753	0.794688
1.3886	0.57107	1.006921	0.860595	1.06502	1.197295	0.746423	1.08367	1.090146	1.050725	1.569405	1.521048	1.471325	1.608839	1.144179	1.116755
1.477167	1.080868	1.211539	1.017767	1.049409	1.100327	0.739289	1.123831	0.924178	0.638551	1.354548	1.132721	1.804292	2.153257	1.372394	1.674818
1.284237	0.534896	0.94074	0.797294	1.226807	1.451331	0.982451	1.58463	1.027825	0.803691	1.476567	1.263785	1.628048	1.864191	1.213409	1.376197
1.309281	0.993634	1.041903	0.854734	1.104937	1.189503	0.779281	1.109561	1.009463	0.747026	1.450653	1.155749	1.655545	1.850855	1.290738	1.543149
1.147459	0.725494	0.890699	0.693627	1.03624	1.021398	0.721337	1.031977	0.833444	0.448058	1.302356	0.754539	1.434549	1.591689	1.126845	1.116944
1.135295	0.679973	0.801371	0.668906	1.06452	1.168484	0.822611	1.24731	1.01795	0.840133	1.515002	1.110052	1.450572	1.600088	1.135386	1.143284
0.958451	0.415805	0.616987	0.478213	1.108258	1.318189	0.883656	1.341761	0.701162	0.235478	1.16628	0.524676	1.503454	1.676391	1.165602	1.28518
0.933542	0.486968	0.611935	0.481991	1.092514	1.267472	0.894143	1.403358	0.691346	0.178322	1.134966	0.422627	1.435629	1.628532	1.161089	1.398155
0.906829	0.338845	0.605632	0.476902	0.953642	0.910949	0.685583	1.027502	0.567315	0.041066	1.014879	0.131747	1.015348	1.013825	0.813419	0.730038
0.750013	0.032262	0.425718	0.309721	0.912341	0.828497	0.620972	0.879804	0.626802	0.262487	1.108958	0.3721	1.345219	1.435214	1.027914	1.273334
0.815196	0.41351	0.553677	0.398648	0.866098	0.690356	0.531845	0.778632	0.55179	0.094669	1.017188	0.241568	1.038364	1.138481	0.766617	0.808984
0.733846	0.166985	0.484979	0.350729	0.786175	0.542788	0.446003	0.599177	0.440019	-0.130357	0.860832	0.004799	0.851238	0.803479	0.639353	0.530174
0.690412	0.143998	0.429031	0.330806	0.749837	0.563148	0.417505	0.490983	0.401544	-0.114486	0.849736	0.076707	0.816964	0.834365	0.606409	0.566626
0.759608	0.300554	0.440223	0.373613	0.823338	0.690356	0.492709	0.752414	0.24501	-0.324944	0.729978	-0.059291	1.092361	1.293541	0.810834	1.043029
0.789565	0.320475	0.489534	0.469139	0.797474	0.624299	0.446003	0.678005	0.355297	-0.100806	0.837439	0.207849	0.855116	0.928833	0.676001	0.800608
0.766882	0.646812	0.606534	0.44003	0.802354	0.510759	0.460261	0.429389	0.570302	0.07306	1.059905	0.372125	0.756913	0.484011	0.621682	0.826771
0.799144	0.850687	0.645716	0.398573	0.758667	0.274674	0.37419	0.207624	0.414886	-0.335416	0.934883	0.080921	0.785391	0.468106	0.617802	0.905233
0.79675	0.638824	0.626035	0.353554	0.854799	0.415132	0.456974	0.368048	0.421902	-0.277146	0.916966	-0.012191	0.816964	0.465125	0.655788	0.879028
0.961964	1.110487	0.887468	0.583206	0.901738	0.52363	0.470861	0.377354	0.577678	-0.094337	1.037638	0.235559	0.888585	0.540831	0.668103	0.939837
1.048078	1.068995	0.850778	0.647258	1.024663	0.763777	0.599635	0.630937	0.304221	-0.556161	0.763006	-0.252687	0.895523	0.557453	0.713995	0.95583
1.006767	1.156562	0.895173	0.674016	1.008078	0.775748	0.588653	0.628677	0.488836	-0.216698	0.941711	0.063906	1.011076	0.81505	0.81524	1.099121
0.980927	0.947536	0.820901	0.653885	1.030838	0.898716	0.678403	0.81597	0.343936	-0.520532	0.823399	-0.173255	0.722482	0.47605	0.642333	0.662442
1.049789	1.063612	0.912079	0.754099	1.016477	0.778817	0.609799	0.767451	0.547507	-0.050988	1.018848	0.144398	0.881158	0.709611	0.789946	0.88467
1.280671	1.361562	1.031759	0.898766	1.08736	1.006019	0.732368	0.935951	0.765993	0.351006	1.229038	0.528388	1.040091	0.908552	0.95036	1.107693
1.212874	1.267657	0.906448	0.812257	0.990516	0.789849	0.652732	0.834118	1.041871	0.913624	1.536647	1.048039	1.161565	1.13568	1.064247	1.295636
1.20067	1.167449	0.900695	0.808748	0.954633	0.70409	0.620519	0.714529	0.899607	0.603187	1.371703	0.746387	1.610369	1.704619	1.395872	2.034201
1.257675	1.355462	0.993596	0.898766	1.211122	1.209023	0.934496	1.411152	0.977903	0.749238	1.435185	0.794094	1.117685	0.939564	1.063455	1.197137
1.1683	1.397041	0.916468	0.770634	1.009887	0.869699	0.707145	0.865686	1.072112	0.923413	1.542253	1.065519	1.232293	1.195558	1.175625	1.391973
1.114059	1.27354	0.825098	0.701337	0.964337	0.791581	0.681959	0.865686	1.003941	0.860234	1.468208	0.82756	1.225691	1.251964	1.149659	1.488268
0.929257	0.625704	0.52962	0.459462	0.998494	0.840638	0.739576	1.02457	0.962	0.766011	1.432263	0.781117	0.841251	0.760908	0.864794	0.878317
0.894727	1.017368	0.653483	0.455336	1.021836	0.964632	0.735927	1.059799	0.850288	0.613305	1.356177	0.654796	0.841251	0.745476	0.864794	0.9578
0.683933	0.329484	0.271195	0.177321	1.047373	1.009549	0.785951	1.237928	0.389909	-0.339659	0.816758	-0.2821	0.885518	0.899215	0.864215	0.993099
0.795036	0.78131	0.53781	0.357143	0.899328	0.713732	0.599539	0.82209	0.670207	0.363192	1.161672	0.302243	1.30277	1.464725	1.113289	1.68167
0.678982	0.62231	0.435267	0.212485	0.981651	0.910923	0.696126	1.053044	0.691346	0.400119	1.161333	0.398046	0.962158	1.070907	0.842845	1.192722
0.704217	0.821937	0.433766	0.223601	0.857203	0.592085	0.549705	0.729266	0.317446	-0.419371	0.72636	-0.320686	0.778457	0.845254	0.705808	0.844352
0.518738	0.113221	0.139858	-0.010616	0.757208	0.391753	0.38903	0.393231	0.572601	0.253566	1.012754	0.21988	0.811251	0.89173	0.668349	0.914123
0.786816	0.833763	0.590719	0.380774	0.963721	0.808596	0.599646	0.892449	0.671527	0.387776	1.065225	0.416317	1.261526	1.512417	0.976574	1.689236
0.6951	0.38007	0.393314	0.243584	0.826515	0.55745	0.456592	0.533317	0.954019	1.051324	1.454799	1.065519	1.020013	1.277647	0.814889	1.308581
0.852874	0.86763	0.698705	0.468298	1.015215	0.981162	0.692727	1.048188	0.750866	0.56615	1.234623	0.708956	0.855571	0.990703	0.67636	0.9578
0.893643	0.699835	0.666909	0.507237	0.961919	0.789849	0.567004	0.757656	0.705007	0.375255	1.171293	0.543006	1.015857	1.255631	0.768919	1.291997
0.822876	0.490951	0.589515	0.44718	1.142513	1.184886	0.779131	1.166884	0.668579	0.228607	1.154707	0.559332	1.383919	1.697676	1.02221	1.76217
0.939476	0.666539	0.825098	0.61789	1.075393	0.95512	0.674522	0.924622	0.862466	0.558517	1.302356	0.765342	1.19473	1.40432	0.899829	1.436035
1.004461	0.704382	0.910697	0.71925	1.247653	1.214413	0.826175	1.190746	1.088218	1.022284	1.558232	1.161104	1.215898	1.437493	0.878683	1.446477
1.004461	0.821937	0.995911	0.729824	1.240642	1.185265	0.790124	1.101302	1.023469	0.690705	1.450942	1.050369	1.481355	1.850855	1.07425	1.874341
0.849951	0.315774	0.811277	0.607946	1.240366	1.097221	0.710535	1.055681	1.015603	0.672023	1.491796	1.057772	1.163599	1.338869	0.772242	1.214852
1.005808	0.695197	1.016135	0.811781	1.286616	1.206198	0.779267	1.080606	0.85344	0.325631	1.351328	0.727919	1.125768	1.204779	0.771066	1.035055
0.908587	0.401268	0.856965	0.71925	1.25213	1.072359	0.753995	1.137149	0.917915	0.455269	1.396867	0.872518	0.892178	0.995957	0.602985	0.700717
0.973303	0.794799	1.044867	0.851536	1.22471	1.105832	0.782684	1.199469	0.917915	0.449061	1.346185	0.773767	0.973552	1.041775	0.702894	0.823052
0.845323	0.296061	0.781576	0.680398	1.217916	1.172608	0.807683	1.231917	1.001913	0.652161	1.396867	0.868856	1.27394	1.465347	0.912457	1.312191
0.878825	0.659077	0.940745	0.768553	1.073551	0.868406	0.624589	0.9001	1.025622	0.737842	1.406721	0.978076	1.440977	1.767145	1.091754	1.583826
0.775083	0.446083	0.846464	0.696624	1.028457	0.914812	0.64611	0.94504	0.892389	0.406224	1.23983	0.735478	1.369814	1.635015	1.04049	1.528801
0.785959	0.356988	0.714479	0.653069	1.099206	1.039208	0.706915	1.104278	0.803417	0.260147	1.21452	0.607037	1.257597	1.47597	0.968011	1.316798
0.739617	0.207539	0.592493	0.543317	1.008592	0.828497	0.592494	0.907078	0.5961	-0.037749	0.978159	0.276842	1.173543	1.376596	0.856912	1.089987
0.674257	0.235766	0.600443	0.549062	0.883154	0.646764	0.464245	0.701115	0.535885	-0.205198	0.896036	0.237556	1.175006	1.338099	0.818871	1.089147
0.55113	-0.027031	0.468978	0.445246	1.040704	1.014038	0.670533	1.129458	0.624822	0.085444	1.004212	0.439108	0.908323	0.963298	0.614395	0.739077
0.57328	0.296522	0.55975	0.503396	0.773371	0.464227	0.3123	0.426051	0.52105	-0.113522	0.8415	0.372125	0.627182	0.693538	0.45299	0.328623
0.401363	-0.045513	0.395575	0.321894	0.712118	0.394241	0.266261	0.367166	0.313929	-0.449489	0.659844	0.101594	0.731524	0.865581	0.492615	0.610175
0.431895	0.09485	0.492949	0.395021	0.740487	0.449886	0.249574	0.342171	0.390704	-0.201772	0.697792	0.265094	0.840803	1.004748	0.553126	0.818125
0.374314	0.108587	0.443154	0.337217	0.694526	0.396179	0.17867	0.299442	0.402872	-0.231062	0.653204	0.294653	0.719799	0.87335	0.454363	0.617868
0.321231	0.000691	0.400321	0.277268	0.699439	0.429618	0.189702	0.38071	0.158698	-0.513939	0.423056	-0.049919	0.543693	0.725545	0.302962	0.24741
0.389853	0.140286	0.444873	0.362885	0.674497	0.461462	0.189702	0.403362	0.068338	-0.620626	0.331346	-0.142388	0.327663	0.488878	0.181501	0.042669
0.416625	0.004075	0.392405	0.39938	0.676958	0.465822	0.144579	0.254478	0.049044	-0.627655	0.325477	-0.062688	0.788423	1.100534	0.526363	0.757533
0.560905	0.475107	0.647183	0.597404	0.667085	0.40318	0.066335	0.204055	-0.009033	-0.691574	0.248587	-0.054149	0.71543	1.132528	0.551155	0.705219
0.489327	0.240311	0.522808	0.546595	0.663258	0.441159	0.095205	0.218211	-0.028027	-0.649017	0.233584	-0.046113	0.581316	0.931906	0.462133	0.4194
0.630171	0.451874	0.692072	0.750755	0.687121	0.434974	0.062597	0.148506	0.208293	-0.208232	0.47951	0.49491	0.678335	1.049805	0.529725	0.566626
0.554284	0.068612	0.470262	0.562712	0.619614	0.367009	0.024301	0.052196	0.18902	-0.130185	0.491498	0.465129	0.775485	1.160145	0.614395	0.626887
0.546315	0.128615	0.554033	0.632969	0.678338	0.513742	0.080358	0.240635	0.010188	-0.570548	0.224486	0.051288	0.658826	1.006152	0.543249	0.446752
0.580587	0.073103	0.554033	0.657369	0.634611	0.491724	0.047556	0.144859	-0.066634	-0.698674	0.186157	-0.033178	0.731524	1.048807	0.602861	0.576641
0.508339	0.025026	0.530644	0.604001	0.632038	0.56745	0.070066	0.2217	0.028983	-0.542624	0.281023	0.245553	0.829803	1.245849	0.69116	0.731617
0.47725	0.069167	0.594715	0.656283	0.487519	0.358056	-0.043025	0.078054	-0.143358	-0.825855	0.100595	-0.117304	0.488938	0.704647	0.443797	0.238023
0.493037	0.025026	0.5657	0.69726	0.603342	0.648961	0.045781	0.312978	-0.086004	-0.649099	0.221806	0.14851	0.428325	0.679172	0.416099	0.191258
0.363123	-0.307277	0.365402	0.557063	0.483917	0.550149	-0.031668	0.192316	0.034633	-0.451206	0.322531	0.427827	0.808048	1.193311	0.687451	0.70578
0.340377	-0.150711	0.403555	0.596456	0.465137	0.593993	-0.007461	0.259584	0.194195	0.055579	0.497744	0.723451	0.700187	1.101204	0.654274	0.645375
0.485146	-0.082805	0.507075	0.725956	0.474786	0.62019	-0.044267	0.211991	0.003091	-0.357767	0.284013	0.386461	0.632531	0.989686	0.628604	0.517464
0.412883	-0.284115	0.430648	0.647369	0.503767	0.662935	0.0103	0.370581	0.422361	0.534185	0.766846	1.29874	0.538523	0.982928	0.597445	0.430432
0.508339	0.040737	0.569463	0.763951	0.407576	0.586042	-0.062127	0.204627	0.377976	0.456553	0.704506	1.141648	0.900426	1.420758	0.823213	0.963784
0.570207	-0.017485	0.608373	0.846957	0.620817	0.997694	0.200089	0.7756	0.291563	0.290438	0.578586	0.86013	0.676155	1.080723	0.66975	0.507944
0.603943	0.168271	0.622267	0.862802	0.618338	1.055833	0.18535	0.786508	0.278325	0.115375	0.557331	0.867173	0.881281	1.444974	0.843773	0.870344
0.432194	-0.279289	0.416174	0.681264	0.52364	0.902062	0.111283	0.628677	-0.053777	-0.470315	0.18256	0.200266	0.516861	0.963124	0.587249	0.375682
0.57328	0.164403	0.68091	0.93032	0.51496	0.902062	0.115017	0.582728	0.073601	-0.214734	0.355181	0.532202	0.823997	1.363791	0.81015	0.792092
0.439701	-0.213224	0.406635	0.69937	0.614549	1.084892	0.192737	0.828133	0.105149	-0.165996	0.405625	0.562208	0.493845	0.982743	0.578099	0.272388
0.565278	0.412112	0.716139	0.912331	0.434139	0.752862	0.023257	0.386378	0.016472	-0.34895	0.289598	0.418607	0.672955	1.195457	0.698412	0.550046
0.401596	-0.335105	0.355363	0.731639	0.641889	1.22185	0.288169	1.023926	0.054924	-0.277146	0.289598	0.354421	0.737138	1.356359	0.758456	0.714432
0.534681	0.276297	0.577325	0.875178	0.500129	0.956229	0.136503	0.585952	0.278325	0.193748	0.584311	0.927719	0.899881	1.591689	0.834952	0.870344
0.344278	-0.281653	0.293265	0.681264	0.475263	0.894121	0.136503	0.585952	0.009792	-0.286322	0.337364	0.404574	0.935281	1.676391	0.865245	0.973597
0.329022	-0.311904	0.283848	0.681264	0.567255	1.059983	0.220887	0.854429	-0.188123	-0.713925	0.053541	-0.005923	0.618334	1.290927	0.646239	0.497531
0.191723	-0.694508	0.076275	0.522275	0.487519	0.905626	0.10379	0.517182	0.214409	0.115375	0.548718	0.890442	0.887117	1.681644	0.838756	0.844352
0.431895	0.056463	0.438612	0.808748	0.578455	1.076632	0.203125	0.740095	-0.188123	-0.678149	0.101268	0.144108	1.022	1.878952	0.937984	1.059443
0.244934	-0.665578	0.103881	0.591893	0.557261	0.988895	0.160112	0.678005	0.118893	-0.02469	0.438627	0.811662	0.984847	1.788023	0.899429	0.981896
0.581276	0.168271	0.587056	1.02097	0.568475	1.026342	0.14228	0.546721	-0.111435	-0.441051	0.255681	0.463768	0.955741	1.709717	0.868596	0.931365
0.44374	-0.324595	0.328339	0.868197	0.659412	1.180809	0.277253	0.828133	-0.085721	-0.484429	0.226521	0.523146	0.721725	1.445077	0.712237	0.53712
0.463086	-0.22588	0.408116	0.944002	0.794341	1.411074	0.432722	1.118453	0.023423	-0.311413	0.294885	0.640495	0.924406	1.695024	0.842503	0.844352
0.524544	-0.182684	0.443328	1.01211	0.732197	1.277761	0.318576	0.82995	0.233682	0.055579	0.533793	0.988368	0.698615	1.352931	0.707623	0.492883
0.623679	0.292402	0.68296	1.151346	0.830553	1.46092	0.47524	1.232657	-0.002228	-0.412554	0.250111	0.515014	0.87423	1.588245	0.833514	0.704175
0.447738	-0.279289	0.364843	0.94508	0.678338	1.172788	0.318576	0.800333	0.241651	0.017947	0.510427	0.967555	1.030357	1.64622	0.954487	0.957671
0.497199	-0.110594	0.481628	1.045898	0.734656	1.210574	0.318576	0.82995	0.236229	-0.008024	0.510567	0.888283	0.982744	1.612292	0.890192	0.905111
0.554284	0.076951	0.573499	1.116665	0.672031	1.064124	0.255192	0.65171	0.062021	-0.484429	0.268129	0.432441	1.268397	2.019205	1.088028	1.295099
0.47439	-0.098315	0.464087	0.958725	0.627083	0.906328	0.170475	0.47488	-0.047191	-0.749665	0.142698	0.182992	1.221643	1.871865	1.092381	1.297943
0.555313	-0.132337	0.441795	0.959891	0.787079	1.147289	0.351078	0.825121	0.171209	-0.261504	0.396752	0.618029	1.038364	1.539611	0.894038	0.922917
0.597787	-0.036187	0.468978	0.91465	0.694526	0.840638	0.22023	0.563034	0.042717	-0.419608	0.307185	0.488807	1.300777	1.963367	1.088028	1.341155
0.559762	-0.251348	0.401446	0.835597	0.742911	0.9398	0.284539	0.663088	-0.175668	-0.910742	0.043906	0.000905	1.136482	1.659488	0.980463	1.124254
0.799654	0.352822	0.716437	1.086223	0.721934	0.964632	0.301825	0.676964	0.113234	-0.223673	0.384832	0.575715	1.459243	1.998513	1.199739	1.611073
0.648824	-0.07352	0.507395	0.865019	0.753267	1.039081	0.340573	0.7756	0.138156	-0.182521	0.438507	0.656132	1.096848	1.53415	0.903419	0.931365
0.594766	-0.144847	0.48012	0.7907	0.718006	0.952217	0.259492	0.601782	0.022736	-0.513197	0.227527	0.350297	1.342355	1.998513	1.092293	1.435187
0.684061	-0.045513	0.483093	0.829901	0.801559	1.117312	0.376109	0.790571	0.225504	0.07306	0.538213	0.870656	1.418334	2.075461	1.126382	1.528513
0.807834	0.084382	0.594229	0.987999	0.81447	1.159949	0.31488	0.710672	0.160863	-0.113522	0.393037	0.712618	1.275219	1.843749	1.032187	1.260163
0.633675	-0.461331	0.325241	0.799371	0.781461	1.226618	0.318576	0.76948	0.193151	0.077657	0.461274	0.94062	1.208345	1.808492	0.963721	1.104383
0.816009	0.152369	0.718358	1.076431	0.698889	1.168112	0.251485	0.589156	-0.060958	-0.441051	0.180802	0.432441	1.119087	1.731502	0.904026	0.973597
0.88205	0.176387	0.866434	1.219425	0.711635	1.160189	0.229061	0.540059	0.192018	0.077657	0.46344	0.920779	0.955741	1.475911	0.792558	0.765885
0.88205	0.052858	0.805232	1.206911	0.856107	1.441255	0.417943	0.87777	0.060599	-0.20133	0.30773	0.606104	1.234976	1.871865	0.997893	1.182297
0.95176	0.339804	0.960925	1.336118	0.821681	1.404137	0.364277	0.730654	0.173982	-0.146383	0.419731	0.784987	1.229725	1.877946	0.989346	1.089147
1.028558	0.571559	1.062769	1.415128	0.853105	1.34903	0.289545	0.68121	0.086615	-0.462919	0.295842	0.537163	1.580227	2.375075	1.280353	1.638707
1.10111	0.643609	1.185574	1.555376	1.099807	1.648651	0.528233	1.036184	0.371264	0.004296	0.57283	0.892319	1.576357	2.362808	1.281136	1.591812
1.202053	0.710615	1.298993	1.722558	1.279862	1.856181	0.642439	1.172721	0.685698	0.473622	0.923368	1.527012	1.56096	2.299038	1.243081	1.499087
1.353352	0.983693	1.505517	1.898476	1.496891	2.140729	0.873709	1.477386	0.497881	-0.083226	0.681247	0.988619	1.67357	2.430095	1.383383	1.74161
1.411703	1.15104	1.587684	1.901025	1.547628	2.141931	0.880991	1.418921	0.84486	0.188527	0.910154	1.305415	1.720422	2.444201	1.477439	1.902358
1.589803	1.459852	1.928807	2.237609	1.673698	2.279619	1.097059	1.658321	0.94907	-0.008079	0.859105	0.937139	2.03863	2.84635	1.705845	2.691605
1.767085	1.669171	2.26646	2.568366	1.906431	2.492027	1.286394	1.814871	1.274568	0.470273	1.221071	1.384066	2.352789	3.217333	1.896516	3.209857
1.701271	1.389981	2.218586	2.541543	2.13526	2.706987	1.422343	2.007443	1.266953	0.177508	1.192988	1.073093	2.581856	3.549356	2.152603	3.56374
1.57037	1.051766	2.159059	2.419243	2.238143	2.748051	1.486617	2.280374	1.635934	0.908733	1.595301	1.622636	2.701692	3.805842	2.232388	3.647952
1.502166	0.663384	2.039636	2.29259	2.276048	2.736532	1.478772	2.252168	1.609053	0.708412	1.491451	1.395043	2.555591	3.446757	2.112606	3.401408
1.59012	0.82454	2.117967	2.319959	2.123378	2.43305	1.294984	1.887509	1.580697	0.663054	1.540963	1.267338	2.506112	3.233009	2.069015	3.240091
1.212915	-0.13666	1.548362	1.660598	2.271794	2.858991	1.488001	2.438152	1.364441	0.29178	1.33784	1.031389	2.481887	3.200753	2.050922	3.248967
1.337117	0.592763	1.755716	1.751895	1.944029	2.240398	1.158874	1.930186	1.52159	0.82622	1.6026	1.59771	2.38827	3.206852	2.005516	3.074041
1.158349	0.022401	1.455392	1.49108	1.876997	2.132446	1.055279	1.862697	1.087784	0.181769	1.181255	0.884542	1.658379	2.22711	1.506502	2.007428
1.229267	0.239404	1.493519	1.582346	1.799679	2.096653	0.974474	1.753371	1.077882	0.259821	1.227113	1.018732	1.620826	2.148161	1.44483	1.902358
1.066913	-0.173108	1.21671	1.304987	1.750126	2.082376	0.908573	1.70141	1.001873	0.229562	1.189369	1.049121	1.80018	2.595082	1.573865	2.295297
1.226508	0.595471	1.455585	1.459748	1.474982	1.542807	0.624656	1.128131	0.973866	0.375666	1.191843	1.299385	1.396627	2.155278	1.313613	1.661889
0.99909	-0.2165	1.03409	1.177556	1.590986	1.876689	0.788595	1.642727	0.740505	0.008493	0.851112	0.784987	1.742752	2.735118	1.576671	2.194266
1.265306	0.652309	1.488559	1.524634	1.417153	1.635176	0.613915	1.24731	1.097307	0.971639	1.31404	1.59482	1.598862	2.546817	1.482506	2.129
1.14505	0.164325	1.239911	1.406219	1.499709	1.826148	0.646007	1.354826	0.814457	0.381721	1.024301	1.177362	1.011076	1.735007	1.074882	1.249653
1.249482	0.68566	1.463054	1.526376	1.416743	1.769883	0.585337	1.202338	0.660338	0.071216	0.846821	1.008516	1.11349	1.905384	1.131176	1.364805
0.931561	-0.231651	0.988091	1.171913	1.309404	1.677526	0.475087	1.033243	0.52403	-0.116879	0.692346	0.762051	1.224123	2.183867	1.23926	1.540192
1.071033	0.41666	1.323418	1.40385	1.448374	1.996968	0.652814	1.373935	0.286512	-0.585238	0.414376	0.346145	1.163599	2.033941	1.144179	1.389893
1.073347	0.173737	1.221865	1.420422	1.429857	1.933159	0.606404	1.251201	0.228474	-0.772225	0.331435	0.247439	1.614166	2.693868	1.527209	2.243507
1.228539	0.670712	1.441868	1.645945	1.382766	1.824848	0.471481	0.976839	0.402872	-0.346838	0.563649	0.658979	1.436485	2.533568	1.398809	1.950756
1.037083	0.066733	1.119032	1.424458	1.484866	2.075194	0.524904	1.142185	0.068896	-1.092249	0.238311	0.139869	1.052892	1.982517	1.096561	1.187346
1.017659	0.051046	1.111307	1.427528	1.466916	2.103811	0.535556	1.160348	0.229988	-0.697619	0.447608	0.498949	1.280601	2.320766	1.30859	1.540192
1.202053	0.541047	1.473659	1.724432	1.430836	1.945772	0.414666	0.876677	0.209911	-0.622657	0.462438	0.485693	1.228214	2.212718	1.217685	1.389893
1.175443	0.224306	1.386366	1.74094	1.516625	2.135279	0.463921	0.987877	0.376179	-0.325442	0.649716	0.884542	1.636891	2.780198	1.533748	2.050659
1.154686	0.300042	1.380364	1.735332	1.513934	2.103164	0.414286	0.947064	0.413601	-0.304468	0.693518	0.926231	1.493539	2.613285	1.472321	1.894304
1.04548	0.128153	1.285763	1.644067	1.479414	2.038352	0.38218	0.893787	0.401596	-0.289231	0.697356	0.915166	1.318302	2.429339	1.343817	1.532072
1.154686	0.62158	1.550794	1.87946	1.545698	2.211504	0.467867	1.068896	0.227576	-0.606489	0.553823	0.583743	1.530864	2.702427	1.534846	1.928338
1.108594	0.26021	1.380364	1.834262	1.578709	2.204102	0.431751	1.077559	0.426985	-0.166641	0.78316	0.98379	1.330389	2.334916	1.396081	1.469103
1.17406	0.604888	1.493449	1.882712	1.479414	2.059943	0.367968	0.896953	0.343495	-0.397755	0.697356	0.846331	1.511352	2.668714	1.540866	1.790125
1.006548	-0.011551	1.131816	1.598525	1.472335	2.096363	0.42851	1.089627	0.438932	-0.159843	0.780431	0.9874	1.393825	2.501268	1.466573	1.567705
1.184016	0.37228	1.326389	1.748111	1.45598	2.067946	0.443063	1.133739	0.298732	-0.368738	0.646898	0.662983	1.307537	2.384636	1.418319	1.449916
1.008131	-0.208169	0.995911	1.492655	1.259276	1.67726	0.176185	0.519594	0.425533	-0.037749	0.798122	0.929867	1.372978	2.339763	1.470059	1.497651
1.081768	0.14849	1.065368	1.432344	1.254607	1.652505	0.241058	0.70432	-0.009387	-1.045904	0.316536	0.13062	1.230612	2.18399	1.326982	1.283629
1.015681	-0.079616	0.988855	1.212587	1.152169	1.449167	0.110345	0.513821	0.065272	-0.834219	0.393435	0.208739	1.237755	2.281351	1.317505	1.303045
1.004341	-0.079616	0.904267	1.176243	1.102283	1.331161	0.100967	0.4782	0.045334	-0.776767	0.449315	0.289042	1.216308	2.173422	1.325353	1.334351
0.9923	-0.311904	0.832965	1.180512	1.018369	1.239405	0.030799	0.318546	0.076422	-0.585099	0.543813	0.446198	1.081857	1.892805	1.200117	1.091695
1.011135	0.012883	0.889765	1.151346	0.882801	1.089145	-0.102797	0.1262	0.007271	-0.599132	0.488069	0.460595	0.816964	1.584351	0.992918	0.76611
0.912086	0.073103	0.935883	1.091763	0.872079	1.030873	-0.08376	0.2217	0.186597	-0.170128	0.625047	0.688113	0.883789	1.711373	1.019213	0.885008
0.700668	-0.412435	0.677131	0.940649	0.782183	0.861269	-0.202894	-0.021547	-0.046275	-0.649925	0.333636	0.206049	0.584063	1.205807	0.770289	0.381249
0.688895	-0.5502	0.571287	0.947443	0.776648	0.843302	-0.250123	-0.077773	-0.016734	-0.463113	0.382758	0.379631	0.724338	1.339709	0.860861	0.610667
0.677148	-0.599844	0.582781	0.968965	0.883332	1.143203	-0.107864	0.218211	0.05859	-0.293268	0.50961	0.69835	0.849125	1.600851	0.980706	0.917298
0.84925	0.021395	0.855056	1.217946	0.847222	1.068309	-0.216813	0.074391	0.05859	-0.287054	0.524356	0.814335	0.634959	1.376596	0.860331	0.602819
0.720328	-0.365149	0.722335	1.119112	0.951249	1.42675	0.001045	0.510846	0.003295	-0.312165	0.486574	0.744438	0.84252	1.822783	1.049293	1.022666
0.968252	0.248291	1.113518	1.443336	0.80226	1.059924	-0.224534	-0.036539	-0.108004	-0.535756	0.387299	0.629695	0.724154	1.64622	0.923989	0.800608
1.071525	0.236323	1.177308	1.551711	0.871526	1.193758	-0.166399	0.025995	-0.195185	-0.741311	0.295894	0.422627	1.137717	2.061787	1.238879	1.307328
1.154642	0.367788	1.210152	1.580693	0.993403	1.340893	-0.086318	0.215642	0.012427	-0.400162	0.482371	0.73914	0.986906	1.921092	1.118255	1.110296
1.135031	0.300042	1.210152	1.573453	1.005036	1.29817	-0.102797	0.155739	-0.049101	-0.527476	0.435561	0.731817	1.448183	2.582074	1.512256	1.859947
1.242755	0.61547	1.371104	1.714882	1.070589	1.378123	0.001641	0.36373	-0.0816	-0.663182	0.402451	0.614795	1.180058	2.290646	1.313267	1.392223
1.23643	0.252356	1.290451	1.678801	1.168044	1.590602	0.109319	0.529917	0.277452	0.061699	0.781764	1.244545	1.369052	2.460843	1.443501	1.618708
1.34489	0.200121	1.347336	1.77561	1.247843	1.626568	0.132678	0.516113	0.121582	-0.292941	0.645996	0.883349	1.320904	2.327858	1.396991	1.50463
1.423784	0.498148	1.504112	1.898679	1.213445	1.499335	0.123773	0.468305	0.39207	0.181571	0.94435	1.466968	1.251786	2.15495	1.388372	1.346089
1.434011	0.39294	1.437521	1.855897	1.181464	1.405351	0.117314	0.373584	0.413055	0.15761	0.9489	1.363573	1.358746	2.241468	1.488944	1.512736
1.550603	0.716766	1.629894	2.020629	1.266112	1.586645	0.196942	0.510441	0.332108	0.054158	0.918046	1.249735	1.38578	2.226984	1.484696	1.512736
1.358443	0.296522	1.383382	1.788416	1.293597	1.681217	0.199742	0.519594	0.148764	-0.419608	0.683322	0.846331	1.376192	2.205312	1.454607	1.463346
1.332544	0.2839	1.330889	1.775159	1.3004	1.646481	0.249902	0.691381	0.317259	-0.064768	0.889014	1.232	1.606232	2.550833	1.664916	1.698605
1.305339	0.264352	1.318867	1.773682	1.25469	1.633078	0.285808	0.717793	0.217122	-0.290716	0.780431	0.998074	1.280601	2.041149	1.436321	1.238123
1.520244	0.85246	1.601037	2.025937	1.213566	1.578683	0.246993	0.612262	0.21834	-0.2391	0.769439	0.949504	1.769034	2.706483	1.780121	2.001422
1.209139	0.02618	1.129272	1.600226	1.25013	1.681217	0.300009	0.793941	0.372941	0.013423	0.964464	1.238322	1.621667	2.597687	1.681436	1.85134
1.270984	0.468279	1.269606	1.662379	1.152056	1.586645	0.250737	0.717793	0.31389	0.031893	0.964854	1.223336	1.431647	2.398401	1.555016	1.501373
1.005458	-0.320063	0.844987	1.368349	1.252209	1.854835	0.432722	1.123992	0.132372	-0.221282	0.777581	0.863664	1.425471	2.359971	1.584246	1.520869
1.214573	0.26021	1.144358	1.682413	1.236333	1.801127	0.344209	0.986197	0.464493	0.595819	1.213775	1.658711	1.391765	2.309759	1.514168	1.493474
1.036717	-0.210647	0.894249	1.460063	1.081728	1.530962	0.206124	0.678005	0.285519	0.097532	0.997271	1.356506	1.38981	2.391535	1.519839	1.544669
1.048117	0.019717	0.945462	1.483929	1.045644	1.550626	0.220887	0.795775	0.410781	0.498084	1.146239	1.54175	1.040695	1.899671	1.24403	1.026419
1.036717	-0.192939	0.837075	1.419254	1.158988	1.756147	0.298633	0.989074	0.203962	0.163252	0.962561	1.202092	1.06357	1.913985	1.230964	1.112595
1.206032	0.529349	1.172535	1.682413	1.229033	1.926204	0.348393	1.113835	-0.139692	-0.642125	0.545644	0.532202	1.369814	2.307983	1.42608	1.523724
0.965032	-0.223385	0.745978	1.306395	1.16573	1.834339	0.344822	1.158575	0.221172	0.240708	0.96506	1.386869	1.296768	2.304395	1.348481	1.400114
1.04358	0.196277	1.004242	1.470273	0.941574	1.353074	0.04106	0.484204	0.015054	-0.182656	0.709756	0.914473	1.422201	2.607963	1.482506	1.740891
1.039814	-0.023844	0.945462	1.480717	1.122737	1.710069	0.245936	0.930497	-0.333857	-0.933092	0.319276	0.208739	0.990639	2.012674	1.139579	1.009613
1.198651	0.24421	1.09087	1.660563	1.165813	1.766138	0.231869	0.907078	-0.277527	-0.741311	0.363514	0.32439	1.233746	2.282698	1.309017	1.372952
1.060207	-0.03304	0.924323	1.522087	0.963721	1.396013	0.01568	0.36534	-0.040332	-0.308886	0.619619	0.924262	1.136138	2.119453	1.291629	1.225261
1.147198	0.212238	1.083148	1.629549	1.193004	1.805882	0.281332	0.994771	0.071622	-0.075543	0.739377	1.095805	1.329183	2.38646	1.390544	1.454022
1.29063	0.585827	1.383382	1.878187	1.236333	1.911353	0.337334	1.000992	-0.127639	-0.457914	0.563169	0.652378	1.256482	2.311219	1.343817	1.400114
1.29063	0.493962	1.3142	1.885624	1.299982	1.982643	0.316352	1.041878	-0.145745	-0.670292	0.484572	0.569271	1.407298	2.467488	1.495816	1.598695
1.310258	0.517603	1.285763	1.916729	1.286366	1.979025	0.34095	1.065492	-0.057338	-0.427516	0.582746	0.807948	1.362034	2.482824	1.483357	1.520869
1.195979	0.15115	1.113779	1.790498	1.193104	1.785971	0.238033	0.836185	0.004422	-0.357767	0.676208	0.856571	1.651908	2.812356	1.684249	1.958866
1.413396	0.524535	1.390888	1.991775	1.209038	1.774442	0.209084	0.717793	-0.019476	-0.463327	0.612465	0.75091	1.501181	2.489478	1.565689	1.598695
1.29926	0.15986	1.190907	1.718967	1.304701	1.947233	0.376109	1.144963	-0.001526	-0.364457	0.691052	0.829844	1.57269	2.668256	1.57908	1.669014
1.402587	0.592458	1.459896	1.857141	1.083796	1.454374	0.106574	0.592592	-0.040332	-0.451206	0.677498	0.70054	1.225691	1.963033	1.296191	0.983207
1.411368	0.477557	1.411958	1.86128	1.227283	1.766138	0.308644	0.953955	-0.097813	-0.579397	0.638485	0.588013	1.376891	2.204154	1.417718	1.310943
1.432973	0.762053	1.47146	1.858242	1.320208	1.982557	0.401189	1.25331	-0.21562	-0.853918	0.498558	0.348728	1.036505	1.74251	1.130729	0.670521
1.274665	0.320475	1.21385	1.675112	1.168096	1.742414	0.231298	0.87777	-0.029674	-0.466732	0.630444	0.614283	1.020013	1.794067	1.152758	0.800608
1.429397	0.824188	1.528797	1.957328	1.215831	1.873084	0.298633	1.100303	0.143949	0.073509	0.937858	1.117561	0.966285	1.654809	1.11822	0.696918
1.072309	0.004075	1.026984	1.506097	1.124964	1.71756	0.164609	0.749363	-0.067237	-0.544081	0.689636	0.730546	1.067723	1.828654	1.156966	0.852757
1.130307	0.458667	1.202668	1.625974	0.916098	1.290054	-0.068472	0.271422	-0.118717	-0.463113	0.681223	0.635425	1.001374	1.737811	1.113662	0.731646
1.020186	0.059979	0.955539	1.469636	0.97116	1.413576	-0.010167	0.413317	-0.310438	-0.930652	0.406558	0.194254	0.955741	1.674293	1.052769	0.654168
1.082751	0.164403	0.98643	1.560679	1.043543	1.669153	0.0775	0.595508	-0.371943	-0.959346	0.333636	0.080921	0.931104	1.759531	1.048763	0.757097
0.984055	-0.213224	0.795309	1.424458	0.960198	1.487808	-0.002684	0.494508	-0.298464	-0.706648	0.479144	0.413136	0.87703	1.715787	0.996298	0.611039
1.136545	0.407479	1.05256	1.653231	0.908578	1.453599	0.026127	0.585063	-0.44071	-1.007665	0.356213	0.261237	0.835555	1.623895	0.961666	0.611039
0.956244	-0.337338	0.734179	1.445811	0.914771	1.527827	0.014052	0.553305	-0.45289	-0.994419	0.34216	0.207849	0.812657	1.595778	0.927068	0.52453
0.975033	0.156404	0.961215	1.544497	0.806348	1.327169	-0.144717	0.274995	-0.372369	-0.727213	0.470925	0.550886	1.166977	2.09066	1.204819	1.032946
0.955541	0.012883	0.902858	1.482925	0.827103	1.326088	-0.105311	0.34112	-0.378903	-0.748567	0.444271	0.439108	0.947304	1.736583	1.039888	0.731617
1.022316	0.2399	0.99923	1.577064	0.915179	1.449808	-0.062259	0.465277	-0.366327	-0.720314	0.377169	0.409401	0.955741	1.751324	1.048763	0.783527
1.102311	0.268406	0.988855	1.63874	1.01884	1.659201	0.102578	0.735313	-0.322482	-0.550806	0.489347	0.607037	0.926913	1.758643	1.035887	0.714432
1.180379	0.451874	1.047538	1.685965	0.912854	1.417439	-0.002684	0.439287	-0.334596	-0.606704	0.44586	0.562208	1.189667	2.211004	1.226457	1.136942
1.020186	-0.04858	0.860749	1.5747	0.848989	1.256267	-0.102797	0.278547	-0.248495	-0.411877	0.564724	0.807686	1.123846	2.019871	1.148378	0.974745
1.119144	0.072206	1.026984	1.751895	1.000397	1.583319	0.05885	0.608908	-0.340307	-0.705819	0.402082	0.490626	1.046914	1.935095	1.135523	0.947265
1.250114	0.388544	1.221458	1.865349	0.984429	1.499068	0.03729	0.494342	-0.239925	-0.613348	0.520564	0.667582	1.362034	2.381788	1.352271	1.345845
1.22194	0.435486	1.200764	1.855897	1.032244	1.609795	0.1439	0.653932	-0.040332	-0.045953	0.805694	1.035258	1.180058	2.012674	1.209212	1.036071
1.258706	0.256333	1.208899	1.900509	1.147657	1.84871	0.288169	0.976903	-0.133657	-0.357767	0.641089	0.716254	1.380791	2.267841	1.339101	1.33007
1.197486	0.335293	1.172535	1.841055	1.018644	1.651821	0.146848	0.676964	-0.246523	-0.677512	0.522558	0.53599	1.27394	2.055242	1.252727	1.132695
1.160888	0.314469	1.174483	1.793294	0.99374	1.651821	0.164609	0.676964	-0.308632	-0.776767	0.51418	0.43453	1.200329	2.012895	1.178827	1.061253
1.10971	0.298256	1.174483	1.826228	1.045644	1.707589	0.206809	0.807863	-0.089957	-0.315452	0.726116	0.757068	1.249699	2.055348	1.239518	1.104383
1.097578	0.251667	1.088158	1.731503	1.045644	1.686507	0.160909	0.729266	-0.133657	-0.386754	0.693747	0.723451	1.489994	2.41699	1.387071	1.485795
1.089136	0.53756	1.113518	1.711426	0.937316	1.417439	0.038307	0.445789	-0.321023	-0.677448	0.478923	0.276842	1.332369	2.34485	1.32173	1.388563
0.885516	-0.215898	0.744037	1.410707	1.000674	1.599959	0.18663	0.802212	-0.27797	-0.628313	0.506858	0.312736	1.354967	2.288058	1.287015	1.353661
1.029719	0.402763	1.02459	1.627824	0.88753	1.380951	0.00654	0.462015	0.04557	0.061827	0.858652	0.997284	1.301883	2.197272	1.21786	1.209089
0.865477	-0.005033	0.716437	1.382373	0.726113	1.101225	-0.10408	0.268008	-0.32853	-0.678316	0.464452	0.32802	0.899881	1.785685	0.979601	0.688237
0.833558	0.120615	0.755676	1.430011	0.660428	1.059983	-0.16494	0.247596	-0.576747	-1.099434	0.224845	-0.083586	1.225176	2.20824	1.204348	1.261115
0.669271	-0.655099	0.408116	1.206622	0.694049	1.205746	-0.097711	0.351364	-0.279834	-0.469501	0.556716	0.553304	0.885518	1.736583	0.932294	0.731617
0.82861	0.128615	0.759127	1.455966	0.542359	0.85703	-0.264703	0.018831	-0.329713	-0.52688	0.486088	0.527183	1.295743	2.393003	1.221609	1.392038
0.614594	-0.491004	0.425718	1.187058	0.74751	1.323187	0.030571	0.657905	-0.459006	-0.839688	0.370874	0.223838	0.87362	1.724274	0.902928	0.791462
0.906829	0.351532	0.902858	1.59154	0.622975	1.030873	-0.201473	0.235461	-0.348304	-0.568334	0.549984	0.497624	0.795447	1.612292	0.834297	0.688466
0.759026	-0.088987	0.663266	1.369698	0.773988	1.402447	-0.036123	0.490678	-0.601427	-1.161825	0.16923	-0.024687	0.774175	1.652034	0.833514	0.64547
0.731189	-0.101609	0.606534	1.352588	0.68132	1.167486	-0.138278	0.290475	-0.595224	-1.138444	0.217951	-0.009046	1.137717	2.274613	1.101002	1.17966
0.790334	-0.119878	0.613659	1.366949	0.746863	1.270182	-0.113088	0.36167	-0.385457	-0.603338	0.471451	0.468089	1.273913	2.362332	1.186718	1.345347
0.891171	0.391153	0.844251	1.504437	0.734922	1.27142	-0.114229	0.264654	-0.285803	-0.411877	0.580786	0.665181	1.132367	2.166732	1.092293	1.080956
0.743383	-0.095112	0.576532	1.282466	0.926738	1.649926	0.156035	0.842339	-0.601427	-1.161825	0.189604	-0.163126	1.229057	2.299393	1.105223	1.192086
0.8994	0.291218	0.83427	1.491758	0.74853	1.220885	-0.07244	0.377826	-0.3351	-0.566008	0.449767	0.361337	1.35208	2.431592	1.208108	1.429264
0.786524	0.025026	0.65533	1.279724	0.9175	1.538462	0.095938	0.755886	-0.21206	-0.316128	0.635403	0.589789	0.951856	1.822783	0.868596	0.722765
0.809792	0.116713	0.671181	1.307687	0.698889	1.100629	-0.11801	0.21307	-0.60754	-1.112269	0.207074	-0.175384	1.157655	2.236423	1.045064	1.115387
0.630203	-0.533439	0.385161	1.093158	0.577172	0.836912	-0.258536	-0.006878	-0.256131	-0.34514	0.640602	0.514821	0.92919	1.808935	0.873038	0.662685
0.856147	0.247269	0.720307	1.329872	0.73732	1.170539	-0.100305	0.326205	-0.397059	-0.656755	0.473672	0.231678	1.303439	2.284211	1.143877	1.276318
0.677018	-0.397442	0.391939	1.109055	0.627836	0.97246	-0.162292	0.12046	-0.675344	-1.258723	0.145818	-0.291933	1.055112	1.99155	0.950074	0.894755
0.793613	0.164032	0.68296	1.304706	0.551053	0.833045	-0.243132	0.007473	-0.61986	-0.923591	0.297628	-0.0836	0.943596	1.829878	0.864141	0.799815
0.739199	-0.046183	0.588906	1.230736	0.551053	0.82473	-0.264703	-0.050951	-0.484228	-0.679839	0.47803	0.25832	1.265442	2.201605	1.070847	1.21113
0.762388	0.064929	0.555438	1.237725	0.591902	0.861787	-0.211546	0.062263	-0.435093	-0.533295	0.51004	0.419702	1.153694	2.117122	0.984831	1.038641
0.653526	-0.367417	0.356727	1.115946	0.620538	0.874081	-0.209126	0.103135	-0.251254	-0.209643	0.726811	0.831671	0.910657	1.760083	0.778414	0.705322
0.832344	0.128615	0.665333	1.392863	0.713294	1.021488	-0.140865	0.181837	-0.287401	-0.215534	0.689811	0.819593	0.813932	1.606264	0.744181	0.560182
0.66122	-0.178478	0.468978	1.209681	0.503946	0.590974	-0.397264	-0.317806	-0.206172	-0.162922	0.743527	0.929169	0.931104	1.801296	0.820845	0.697214
0.902261	0.453738	0.786702	1.488408	0.63172	0.878192	-0.260851	-0.025316	-0.4282	-0.552794	0.52866	0.546305	0.87362	1.710713	0.787394	0.560182
0.911355	0.316201	0.765575	1.538688	0.795783	1.15771	-0.1484	0.274657	-0.236614	-0.174933	0.728095	0.937297	1.108521	2.089993	0.963277	1.004243
1.020274	0.616177	0.925793	1.660522	0.962505	1.458941	0.040834	0.577354	-0.459006	-0.77676	0.453455	0.487464	1.181631	2.240427	1.074882	1.155559
1.033406	0.367788	0.940745	1.691566	1.084304	1.657033	0.159639	0.850548	-0.384937	-0.743015	0.501974	0.62143	1.609862	2.907413	1.43853	1.811073
1.34453	1.131222	1.424916	2.092577	1.152205	1.662869	0.158591	0.74718	-0.123508	-0.421659	0.774978	0.984589	1.575525	2.823105	1.459036	1.769405
1.321166	0.479946	1.255276	2.060548	1.236413	1.762377	0.209827	0.746293	-0.165281	-0.664807	0.759436	0.900891	1.868473	3.080543	1.659875	2.114845
1.45422	0.975356	1.615202	2.322032	1.463476	2.078791	0.351078	1.009733	0.161799	-0.128365	1.086757	1.290023	1.591546	2.637713	1.4358	1.57579
1.36904	0.512864	1.485935	2.225766	1.615525	2.350654	0.52136	1.288342	0.321411	-0.010105	1.226824	1.465209	1.739054	2.805496	1.575957	1.782254
1.56261	0.694502	1.63925	2.396655	1.696463	2.498498	0.535556	1.447935	0.382517	0.187456	1.441459	1.693336	1.761048	2.92547	1.55231	1.821118
1.341006	0.300042	1.400757	2.271732	1.59461	2.380247	0.366029	1.203464	0.381784	0.439912	1.588452	1.879552	1.828501	3.006578	1.588688	1.856822
1.418724	0.81152	1.673073	2.505284	1.552199	2.44685	0.376451	1.539867	0.015047	0.036959	1.353512	1.304705	1.553651	2.664404	1.464634	1.414529
1.167599	0.100848	1.358841	2.238883	1.434757	2.345884	0.337581	1.542188	0.148615	0.295433	1.539472	1.49472	1.757877	2.751253	1.624102	1.787829
1.389096	0.755616	1.826089	2.613272	1.268381	1.971742	0.067121	0.986197	0.228335	0.45922	1.670368	1.547551	1.950073	2.943545	1.784324	2.179057
1.298618	0.465183	1.716379	2.457982	1.348134	2.117949	0.153864	1.023926	0.172591	0.253592	1.657436	1.461254	1.735682	2.522263	1.564806	1.742069
1.308529	0.538306	1.720302	2.442471	1.313879	1.968528	0.108883	0.974099	0.252285	0.265175	1.68753	1.341995	1.848135	2.585788	1.658566	1.999998
1.363526	0.575849	1.822255	2.497418	1.352568	2.000512	0.140032	1.008692	0.292106	0.211673	1.70499	1.302457	1.977666	2.664364	1.759727	2.215646
1.593179	1.066583	2.079317	2.731509	1.421582	2.114437	0.25437	1.132163	0.17493	-0.163927	1.601586	1.005024	1.904494	2.384144	1.731334	2.071802
1.416333	0.545853	1.767255	2.465995	1.433044	2.09304	0.247432	1.10577	0.278819	-0.174933	1.65106	1.102141	1.92848	2.393003	1.762159	2.092935
1.519952	0.845539	1.877339	2.473844	1.405299	2.014717	0.292629	1.111165	0.190368	-0.382972	1.538733	0.806729	1.988504	2.503806	1.835077	2.215844
1.611495	0.793209	1.880942	2.547424	1.505612	2.20271	0.428268	1.387774	0.377494	0.02022	1.707229	1.025416	2.066174	2.592172	1.847524	2.266324
1.624071	0.616732	1.825773	2.586918	1.501292	2.1463	0.421493	1.325054	0.495558	0.252032	1.839114	1.250672	1.866303	2.266392	1.731971	1.90549
1.712792	0.793209	1.851144	2.631899	1.467453	2.136038	0.450126	1.301779	0.5147	0.217564	1.870059	1.351349	2.215795	2.817037	1.990521	2.352463
1.731918	0.845539	1.847665	2.623941	1.537852	2.354024	0.604122	1.57909	0.606401	0.389998	1.977912	1.620086	2.21168	2.888928	2.020906	2.244703
1.696898	0.613722	1.788331	2.616086	1.606748	2.523435	0.755807	1.899723	0.638973	0.276592	1.886706	1.378311	2.258973	3.14957	2.097594	2.360469
1.932564	1.254627	2.087847	2.886864	1.437882	2.182701	0.549209	1.411452	0.92281	0.840268	2.151259	1.858874	2.142739	2.915477	2.008544	2.114057
1.789165	0.523591	1.742722	2.687756	1.562778	2.487528	0.744683	1.745651	0.735445	0.430208	1.979672	1.428098	2.411908	3.253278	2.220337	2.550588
2.024675	1.312523	2.139533	2.958695	1.543522	2.471619	0.790051	1.793056	0.774087	0.277579	1.910007	1.46438	2.723513	3.728063	2.436588	3.001665
1.789165	0.568756	1.753542	2.642463	1.598949	2.627551	0.911585	2.006811	1.140617	1.035173	2.293357	2.064269	2.017324	2.744662	1.916835	1.854058
2.146681	1.540886	2.303768	3.077063	1.541899	2.429001	0.802321	1.74304	1.241693	1.290316	2.428783	2.281795	2.364666	3.190534	2.122526	2.323406
1.920064	0.974696	1.954133	2.725036	1.835309	3.137727	1.199863	2.546135	0.909848	0.412139	1.998067	1.516927	2.235205	3.048398	2.096639	2.215844
1.961405	1.232541	2.036042	2.761919	1.525448	2.486538	0.877191	1.802949	1.339321	1.412054	2.496465	2.383102	2.156551	2.963257	1.994736	1.98646
1.929766	0.945547	1.80583	2.631923	1.564373	2.583907	0.969801	2.002174	1.20648	1.141318	2.333895	2.059249	2.05062	2.863839	1.944314	1.892563
2.054369	1.425628	2.032277	2.740597	1.818346	3.143469	1.254186	2.603179	0.984742	0.51043	2.037511	1.598738	2.425432	3.405842	2.231318	2.530435
1.94263	1.091531	1.817666	2.526139	1.632746	2.709289	1.094424	2.228933	1.117835	1.019455	2.235163	1.991353	1.967191	2.764222	1.936603	1.793112
2.07107	1.226733	1.906513	2.634596	1.604618	2.61014	1.07224	2.182325	0.718091	0.018051	1.705185	1.073827	2.066205	2.857487	2.00713	1.979071
2.158496	1.05707	1.899041	2.674309	1.705086	2.821324	1.188684	2.415465	0.909848	0.572198	1.949611	1.59246	2.137443	2.876447	2.08159	2.029507
2.268684	1.296901	2.00639	2.690033	1.610992	2.669361	1.096281	2.21788	1.026843	0.831998	2.088639	1.906367	2.187958	3.037953	2.127113	2.16552
2.493377	1.794176	2.295332	2.922855	1.529219	2.49519	1.001782	1.979406	0.879252	0.560058	1.90989	1.617402	2.447827	3.475425	2.387184	2.700176
2.502286	1.520262	2.221903	2.90019	1.758555	2.927297	1.233457	2.461457	1.071372	0.99242	2.117481	2.069808	2.386647	3.318524	2.347712	2.546613
2.699556	2.009203	2.38569	3.017229	1.684023	2.721485	1.092429	2.054827	1.381456	1.613892	2.469888	2.748137	2.814213	3.899764	2.683576	3.159748
2.606801	1.610477	2.203846	2.877095	1.801794	2.924972	1.210997	2.252287	1.374854	1.594708	2.411153	2.611307	3.111803	4.416176	2.920791	3.643619
2.78311	1.905492	2.413051	3.083357	1.68568	2.622528	1.048031	1.812226	1.103371	0.929126	2.09583	2.128671	2.696196	3.774195	2.587304	2.858052
2.734871	1.587134	2.263953	3.017083	1.965754	3.082973	1.296092	2.301249	1.508044	1.718208	2.550181	2.868999	2.61186	3.60761	2.544008	2.740925
2.857507	1.763883	2.342249	3.113399	1.942445	3.016596	1.307364	2.247996	1.443342	1.490918	2.473741	2.613512	2.339163	3.190664	2.385179	2.221504
2.847314	1.599607	2.320861	3.091325	2.055091	3.28285	1.481974	2.4979	1.263636	1.061697	2.260288	2.154116	2.644249	3.57178	2.605323	2.681234
3.192773	2.47776	2.785358	3.521018	2.003522	3.124881	1.354079	2.144272	1.391438	1.206449	2.383301	2.374954	2.842122	3.809731	2.728164	2.938362
3.057802	2.006344	2.610295	3.344709	2.127348	3.352609	1.504831	2.470046	1.48013	1.341532	2.437846	2.367227	2.572968	3.452871	2.569092	2.463066
3.083293	2.166474	2.683768	3.378654	2.08208	3.204087	1.427116	2.290321	1.711953	1.778898	2.706692	2.818132	2.835921	3.798338	2.757285	2.881523
3.173127	2.144638	2.733433	3.473787	2.26035	3.638257	1.689069	2.717889	1.467091	1.104578	2.356109	2.223056	2.559714	3.374944	2.554307	2.485172
3.125467	2.117532	2.716747	3.434506	2.158519	3.32742	1.542365	2.442214	1.49086	1.201064	2.396917	2.310936	2.582519	3.338951	2.576113	2.41182
2.988342	1.80895	2.577725	3.297313	2.127348	3.313819	1.598857	2.47787	1.465586	1.152424	2.359319	2.244366	2.385902	3.02307	2.406922	2.106513
3.173041	2.250037	2.876806	3.563089	1.960871	2.956602	1.339489	1.905156	1.389592	0.941034	2.234495	2.000634	2.501947	3.199187	2.475183	2.324333
2.983142	1.838608	2.648356	3.34972	2.049483	3.095084	1.481974	2.286163	1.387752	0.906575	2.258179	2.159493	2.628059	3.381173	2.576113	2.441109
2.810458	1.64281	2.516782	3.212897	1.862129	2.811729	1.320169	1.967568	1.508044	1.237864	2.381919	2.396819	2.534405	3.253278	2.522328	2.455233
3.030742	2.173278	2.904139	3.518658	1.984979	2.994497	1.388139	2.114416	1.453885	1.131029	2.376333	2.308714	2.466544	3.11102	2.500628	2.360766
2.82517	1.76469	2.554325	3.226395	1.947905	2.991378	1.35579	2.024972	1.432731	1.067153	2.377874	2.384913	2.698897	3.5243	2.659434	2.724614
2.869956	1.947582	2.664539	3.337774	1.926657	2.994497	1.329936	1.974726	1.457863	1.147378	2.3799	2.453537	2.791818	3.541706	2.706175	2.854252
2.835948	1.724137	2.603642	3.278665	1.969852	2.984796	1.292851	1.899692	1.501522	1.314289	2.396917	2.439088	2.655518	3.37097	2.597894	2.632131
2.88656	2.076013	2.753491	3.396808	2.02858	3.090814	1.337944	1.972365	1.346313	0.877637	2.182809	2.108296	2.679509	3.394351	2.598092	2.557639
2.659405	1.489121	2.448954	3.123698	1.869293	2.777925	1.186802	1.554226	1.292292	0.851919	2.160302	2.090553	2.669515	3.500623	2.630516	2.621806
2.714981	1.610561	2.498025	3.185917	1.907508	2.852898	1.228308	1.733703	1.467091	1.201064	2.338404	2.451189	2.714372	3.547446	2.652091	2.744618
2.742191	1.565809	2.551777	3.227783	1.991123	3.025823	1.333175	1.931666	1.373309	0.949539	2.266574	2.228223	2.844007	3.707709	2.778414	2.988192
2.677213	1.541738	2.521703	3.197951	1.88333	2.852546	1.190577	1.663688	1.243884	0.683309	2.155505	1.969481	2.656979	3.512539	2.677489	2.754511
2.720871	1.464457	2.472137	3.170497	1.954098	3.050928	1.359026	1.899692	1.418238	0.99242	2.288364	2.169954	2.737704	3.636917	2.699106	2.901516
2.8539	1.806295	2.715929	3.432403	1.807045	2.666467	1.125731	1.41318	1.164983	0.381538	1.980478	1.623727	2.405217	3.121334	2.424904	2.331138
2.764653	1.574227	2.636571	3.304107	2.009742	2.96297	1.295756	1.748244	1.258182	0.640263	2.168918	1.90054	2.637602	3.40576	2.569294	2.60977
2.765556	1.634993	2.654748	3.323783	1.916228	2.808471	1.198411	1.60915	1.349805	0.749238	2.203385	1.991353	2.747789	3.673122	2.699106	2.904997
2.698439	1.421814	2.561406	3.246748	2.037804	3.037924	1.37358	1.936246	1.269073	0.634248	2.122273	1.871923	2.762153	3.67105	2.673185	2.927528
2.668351	1.248264	2.490894	3.241675	2.074435	3.063897	1.378444	1.927013	1.251261	0.55914	2.14142	1.795156	2.672619	3.5243	2.587257	2.784474
2.602351	1.058518	2.382788	3.123698	2.047877	2.968036	1.363755	1.955968	1.233391	0.3937	2.026352	1.684863	2.740802	3.684777	2.673646	2.918484
2.591864	1.208146	2.390008	3.115385	2.006853	2.871524	1.260584	1.834402	1.342136	0.782406	2.190843	1.91327	3.067396	4.042855	2.881384	3.419269
2.588872	1.116227	2.401525	3.137156	1.893792	2.752933	1.196024	1.635259	1.334162	0.663099	2.095259	1.776421	2.86775	3.682181	2.75538	3.160544
2.463454	1.109433	2.313942	2.955627	1.80394	2.565449	1.063415	1.432932	1.457474	0.958069	2.268277	2.07025	2.765155	3.647145	2.701513	3.050233
2.430681	0.995246	2.203273	2.820305	1.968386	2.957967	1.323456	2.008055	1.197482	0.481674	1.957424	1.49472	2.848404	3.87018	2.740829	3.166618
2.417363	1.109433	2.262316	2.897198	1.747988	2.500163	1.088017	1.489679	1.467505	1.144799	2.304582	2.076601	2.207117	2.92547	2.25044	2.178973
2.43373	0.868941	2.140096	2.855033	1.935553	2.867858	1.286439	1.960157	1.13734	0.405507	1.9448	1.480267	2.690992	3.575683	2.608428	2.940262
2.503804	1.354383	2.372549	2.972908	1.771249	2.51804	1.150046	1.657171	1.250777	0.615891	2.049255	1.709638	2.540728	3.4005	2.504763	2.694783
2.312269	0.725994	2.054585	2.727329	1.622018	2.200154	0.94631	1.29369	1.188471	0.678957	2.015568	1.633306	2.100947	2.847817	2.193172	2.01882
2.523094	1.314762	2.414249	3.024259	1.567169	2.118127	0.889553	1.145992	1.163781	0.554134	1.881078	1.503107	1.970767	2.615476	2.090289	1.882202
2.448836	0.97805	2.240542	2.948389	1.838634	2.647704	1.185386	1.715519	1.339321	0.923716	2.049255	1.804698	2.001787	2.71812	2.07868	1.974844
2.572152	1.42981	2.481872	3.10255	1.844003	2.725097	1.17236	1.728526	1.300238	0.892197	2.105294	1.873814	2.242058	3.134067	2.25044	2.34605
2.544017	1.196823	2.431818	3.096799	1.752259	2.48853	1.008125	1.363129	1.054005	0.344537	1.794065	1.360554	2.560197	3.619428	2.472401	2.830961
2.544017	1.029556	2.413051	3.140339	1.961638	2.909177	1.263844	1.915805	1.082211	0.296431	1.82241	1.351349	2.688861	3.785575	2.59436	3.116777
2.521676	0.92628	2.339039	3.036545	1.92458	2.774775	1.173668	1.588807	1.569695	1.300866	2.353007	2.274677	2.925851	4.151748	2.740829	3.493536
2.615468	1.325679	2.577725	3.207778	1.902453	2.758803	1.171566	1.605681	1.42082	0.929563	2.166061	1.882167	2.809744	4.002594	2.651187	3.259146
2.617228	1.150483	2.527449	3.207097	2.119642	3.143469	1.436377	2.149809	1.365707	0.802857	2.098378	1.622845	2.81269	3.943106	2.636742	3.185187
2.654065	1.42981	2.646006	3.263583	2.035216	3.01592	1.323433	1.913558	1.81169	1.676003	2.628142	2.532465	2.617799	3.672341	2.440465	2.901516
2.429496	0.737735	2.320253	3.017083	2.013866	2.928043	1.294343	1.915805	1.401132	0.782406	2.158685	1.670732	2.729548	3.789336	2.526065	3.148264
2.523094	0.99503	2.383965	3.126867	1.927904	2.818498	1.268556	1.807309	1.633819	1.227136	2.427497	2.125612	2.818548	3.859463	2.568742	3.197391
2.253364	0.344904	2.024575	2.821198	1.829321	2.61014	1.109178	1.596232	1.398027	0.751563	2.183994	1.663877	2.348195	3.251866	2.226104	2.463066
2.426679	0.954609	2.28196	3.001846	1.729932	2.405268	0.997946	1.33903	1.309418	0.537576	2.063394	1.433552	2.785845	3.792319	2.543501	3.141938
2.233223	0.409211	2.021006	2.828914	1.701596	2.35738	0.986073	1.355136	1.153255	0.247738	1.878438	1.18992	2.265652	3.019225	2.091692	2.266324
2.24131	0.778986	2.113705	2.851334	1.624907	2.274798	0.903228	1.195304	1.320794	0.642709	2.096309	1.640963	2.434846	3.347568	2.245358	2.595993
2.141585	0.592458	1.987886	2.766628	1.708245	2.378339	0.983044	1.411842	1.077196	0.151536	1.746096	1.078197	2.473031	3.417151	2.245358	2.674768
2.237132	1.070858	2.249695	2.993111	1.653663	2.301414	0.947815	1.34905	1.08022	0.202964	1.756049	1.081223	1.904144	2.610778	1.809579	1.828745
2.137654	0.824188	2.002651	2.787268	1.596056	2.322773	0.947815	1.397166	0.999749	0.229219	1.698567	1.078197	2.390165	3.294606	2.122526	2.569155
2.056627	0.828578	2.024119	2.749031	1.458176	2.042673	0.780602	1.097541	0.987526	0.221893	1.696269	1.099465	2.086368	2.80481	1.836867	1.958866
1.929453	0.435486	1.807402	2.594641	1.537852	2.141051	0.840269	1.240537	0.999508	0.285036	1.661652	1.089786	1.885219	2.595082	1.686852	1.729637
2.043671	0.834661	1.961747	2.767269	1.649671	2.40598	0.95661	1.546776	0.959512	0.375935	1.636003	1.10533	1.981697	2.776174	1.784398	1.966
1.979852	0.593551	1.818703	2.643927	1.554897	2.227431	0.895242	1.418941	1.018709	0.504304	1.738939	1.42156	1.930075	2.802468	1.733769	1.858777
2.039739	0.934404	2.096674	2.779381	1.534956	2.147679	0.804269	1.351544	0.837637	0.118613	1.498889	1.038757	1.756612	2.572926	1.62896	1.646354
2.00871	0.610219	1.965558	2.707387	1.396063	1.869829	0.637903	0.860358	0.955951	0.468564	1.644516	1.361523	1.823795	2.798649	1.658322	1.895263
2.122444	1.018622	2.100807	2.821895	1.454874	1.950645	0.704862	1.058516	0.96631	0.519515	1.697957	1.45901	1.869837	2.860085	1.689248	1.944459
1.938183	0.515787	1.870033	2.586339	1.311644	1.736023	0.567334	0.740095	0.86351	0.227489	1.524193	1.198096	2.200073	3.335596	1.904642	2.478261
2.062651	0.795525	2.053696	2.770272	1.382422	1.820423	0.613359	0.851436	0.975141	0.575892	1.640273	1.328933	2.209826	3.352456	1.93715	2.497639
1.884338	0.470186	1.811318	2.505291	1.502756	2.080828	0.750802	1.140169	1.000866	0.610351	1.687074	1.496137	2.061847	3.121616	1.840033	2.29053
1.8905	0.53756	1.829651	2.52878	1.402649	1.986009	0.712258	0.991932	0.75168	0.032056	1.36048	0.913696	1.784912	2.765995	1.641419	1.88845
1.89095	0.479946	1.792467	2.531624	1.393417	1.880416	0.641338	0.892449	0.729539	-0.009881	1.361536	0.843073	1.871942	2.874285	1.728145	2.064683
1.836677	0.339804	1.638115	2.37961	1.341153	1.898008	0.631008	0.828133	0.800708	0.202964	1.511378	1.0754	1.974345	2.932633	1.785573	2.098439
1.785942	0.160447	1.554257	2.314292	1.384191	1.975172	0.715656	1.023926	0.874049	0.438039	1.644516	1.304198	1.887319	2.718973	1.681833	1.895263
1.893568	0.443639	1.818805	2.536373	1.293298	1.789022	0.627549	0.743204	0.961138	0.676844	1.730066	1.40642	1.553651	2.258038	1.452675	1.473756
1.833561	0.307396	1.628501	2.372045	1.372291	1.942411	0.71163	0.987933	0.75168	0.131874	1.453593	0.935195	1.842641	2.617391	1.650995	1.874289
1.820452	0.45494	1.669615	2.351309	1.215699	1.61893	0.613009	0.76443	0.734888	0.270825	1.460576	0.902236	2.099589	2.944297	1.806641	2.133616
1.779487	0.307396	1.526793	2.242367	1.16124	1.407806	0.52119	0.598655	0.582473	-0.033758	1.181649	0.573506	1.913061	2.710948	1.660641	1.881231
1.738283	0.18002	1.479866	2.182932	1.174654	1.426045	0.5138	0.626128	0.402982	-0.328584	1.041668	0.456019	1.713465	2.469064	1.499879	1.582029
1.747833	0.124428	1.431411	2.172387	1.237831	1.636496	0.583873	0.764428	0.647321	0.306246	1.35632	1.10898	1.586972	2.431592	1.398398	1.560502
1.741402	0.267775	1.498004	2.208789	1.100119	1.321376	0.380176	0.374586	0.414823	-0.122169	1.080303	0.746321	1.198775	1.935206	1.095925	0.860291
1.706717	0.112323	1.470704	2.244353	1.244381	1.681456	0.594034	0.821878	0.425194	-0.015644	1.152807	0.932194	1.448951	2.399513	1.287525	1.42677
1.810785	0.365297	1.607826	2.385035	1.276573	1.803222	0.601867	0.799329	0.368416	-0.145214	1.132506	0.875806	1.460161	2.395117	1.279453	1.396298
1.795325	0.323591	1.552473	2.317455	1.384552	1.973239	0.710138	1.058691	0.262755	-0.367938	0.992077	0.57372	1.373684	2.376552	1.22057	1.341155
1.757382	0.168236	1.472324	2.288659	1.42783	2.071584	0.777479	1.163218	0.447139	-0.005769	1.193103	0.896521	1.419129	2.443298	1.219059	1.369151
1.649855	0.001957	1.327479	2.094057	1.319786	1.890871	0.616447	0.816732	0.359425	-0.274751	1.054094	0.671983	1.474989	2.550807	1.291544	1.508692
1.668818	-0.080894	1.239911	2.055263	1.366809	1.977713	0.690059	0.990645	0.416383	-0.092255	1.135578	0.738076	1.82773	2.989788	1.570492	2.140202
1.804937	0.021395	1.379785	2.148129	1.458948	2.171493	0.854819	1.303713	0.473432	-0.062748	1.212319	0.860319	1.793751	2.93848	1.557124	2.111637
1.871536	0.156404	1.493519	2.143548	1.269165	1.761182	0.668523	0.977871	0.609679	0.244037	1.387719	1.173742	1.941219	3.104062	1.69211	2.242532
1.973039	0.326023	1.526793	2.167099	1.181005	1.536454	0.587268	0.772807	0.764615	0.590888	1.582207	1.399073	1.348529	2.180079	1.214106	1.21888
2.017796	0.235576	1.519258	2.190595	1.16112	1.483388	0.531629	0.721134	0.530929	0.159387	1.388266	0.952724	1.831117	2.779572	1.574269	1.90845
2.071619	0.314469	1.570647	2.154713	1.077525	1.377495	0.527895	0.677975	0.848043	0.833551	1.752205	1.629177	1.871879	2.96727	1.633224	1.963177
1.957131	0.01387	1.38461	1.997118	1.282073	1.70519	0.741684	1.203861	0.657929	0.326839	1.5074	1.181075	1.619082	2.503297	1.416406	1.54122
2.017796	-0.089458	1.361628	2.00146	1.226138	1.66758	0.731738	1.142024	0.56858	0.085894	1.424612	0.950836	1.519922	2.349379	1.342955	1.357339
2.150095	0.515787	1.683888	2.14707	1.104372	1.488614	0.639638	0.913017	0.566109	0.170117	1.422369	0.987921	1.519578	2.437914	1.362749	1.394733
1.988067	0.069167	1.436058	1.966048	1.03248	1.416221	0.559107	0.74693	0.309547	-0.407499	1.148718	0.511883	1.538217	2.500639	1.345645	1.429264
2.016861	0.191756	1.596298	2.12069	1.097724	1.532923	0.629551	0.8765	0.520082	0.161194	1.486036	1.065675	2.016069	3.194022	1.716594	2.203724
1.963183	0.076951	1.475345	2.073546	1.178814	1.719571	0.689355	1.009129	0.471049	0.03684	1.392161	0.997612	1.742644	2.858871	1.501928	1.817603
1.908772	0.057297	1.410348	2.040155	1.14964	1.70922	0.710923	1.024796	0.313831	-0.203793	1.230747	0.766633	1.621306	2.757531	1.446001	1.558626
1.798435	-0.387298	1.201139	1.919413	1.050481	1.487045	0.5561	0.649083	0.247597	-0.332865	1.127811	0.665497	1.493809	2.598524	1.346937	1.357339
2.064586	0.302868	1.599547	2.257355	1.063973	1.513962	0.542286	0.585063	0.037391	-0.713459	0.922721	0.350062	1.333031	2.379886	1.236163	1.176565
1.903318	-0.249214	1.291736	2.082291	1.077532	1.580145	0.584703	0.669098	0.145471	-0.685137	0.962317	0.49491	1.381768	2.449795	1.316658	1.234242
2.074591	0.298256	1.596298	2.306942	1.127212	1.604619	0.613009	0.672076	0.353823	-0.257917	1.15634	0.850744	1.377977	2.38646	1.291544	1.176565
2.139613	0.160447	1.543607	2.329776	1.360363	2.065085	0.917139	1.213145	0.526256	0.073509	1.310823	1.099465	1.729715	2.902943	1.599254	1.762344
2.186348	0.448728	1.617759	2.335465	1.34251	1.985349	0.854521	1.069242	0.782201	0.550187	1.588706	1.514242	1.369814	2.318011	1.336019	1.171674
2.139613	0.21622	1.510111	2.277531	1.36957	2.01643	0.939071	1.15822	0.708051	0.473708	1.586535	1.48416	1.639494	2.731338	1.543738	1.580727
2.311636	0.739402	1.826068	2.510497	1.313226	1.890871	0.876356	0.979687	0.760309	0.504304	1.629547	1.479216	1.508794	2.513098	1.484331	1.419221
2.3145	0.576903	1.796832	2.53396	1.508329	2.276086	1.128146	1.452257	0.73256	0.365069	1.553822	1.375842	1.860038	2.989788	1.714073	1.839312
2.414384	0.895539	1.917427	2.580723	1.276928	1.792797	0.847813	0.848692	0.680232	0.233045	1.50026	1.258134	1.748511	2.810939	1.612667	1.628533
2.227013	0.2839	1.569435	2.350992	1.464023	2.171493	1.129763	1.518136	0.472542	-0.199454	1.236536	0.781117	1.933554	3.040665	1.800463	2.093185
2.270374	0.509598	1.719792	2.471249	1.319289	1.889629	0.998118	1.118397	0.793391	0.46338	1.629547	1.479216	1.976407	3.081427	1.805215	2.085069
2.116822	0.323591	1.621002	2.296388	1.321963	1.872863	0.95661	0.998673	0.834541	0.448284	1.605908	1.456567	1.718063	2.715104	1.650386	1.720268
2.112428	0.582168	1.70554	2.32521	1.361878	1.941228	1.022002	1.177796	0.666968	0.134871	1.398192	1.103607	1.725147	2.84707	1.657794	1.769405
2.169355	0.794481	1.844024	2.486175	1.328468	1.886304	0.966388	1.137058	0.812267	0.463363	1.569453	1.438682	1.817495	2.876349	1.71397	1.901711
2.106213	0.52707	1.731412	2.408498	1.147578	1.552977	0.719046	0.597236	0.611997	-0.004159	1.305178	1.027368	1.732183	2.745287	1.659017	1.818263
2.008872	0.212046	1.516151	2.260225	1.368948	1.997422	0.947653	1.09481	0.768411	0.311452	1.530783	1.399073	1.791864	2.836319	1.745411	1.936613
2.070113	0.386429	1.578123	2.317455	1.413572	2.121054	1.031562	1.289	0.968263	0.771254	1.712982	1.71692	1.728671	2.858871	1.711243	1.860026
2.217316	0.660923	1.785908	2.505086	1.418589	2.129516	1.085334	1.310586	1.10464	0.891178	1.81131	1.812876	1.519922	2.418854	1.56393	1.399574
2.232608	0.541047	1.78904	2.549997	1.466972	2.176804	1.104361	1.3584	0.987526	0.593796	1.730066	1.567266	1.801423	2.794539	1.768937	1.8182
2.346351	0.868831	1.994598	2.675286	1.365248	1.974379	0.913854	0.923118	0.975087	0.555184	1.771744	1.669584	2.159521	3.275804	2.04366	2.370661
2.393843	0.953448	2.042509	2.722726	1.362516	1.952318	0.912726	0.884493	0.672148	-0.086381	1.437851	0.95895	2.380792	3.640393	2.232986	2.713216
2.290914	0.582168	1.840607	2.573562	1.429255	2.040771	0.985142	1.110916	0.867705	0.249473	1.582172	1.179279	2.301518	3.490126	2.177961	2.564631
2.370103	0.61547	1.869951	2.631311	1.6132	2.418432	1.155202	1.465564	0.826105	0.140212	1.565147	1.100888	2.396701	3.606107	2.240443	2.665472
2.51002	1.198225	2.18151	2.853234	1.590338	2.357989	1.158364	1.441486	0.952419	0.392485	1.723889	1.346734	2.235204	3.414195	2.12295	2.387172
2.317217	0.565545	1.899383	2.638795	1.507029	2.209472	1.075488	1.234465	0.820695	0.048015	1.562984	0.976604	2.162131	3.213683	2.06482	2.248454
2.513088	1.007874	2.188577	2.884563	1.56423	2.251772	1.093055	1.320586	1.152294	0.731137	1.933784	1.656983	2.28571	3.340181	2.133949	2.403546
2.407135	0.812531	2.056893	2.714678	1.519737	2.144212	1.069434	1.282171	1.034913	0.453348	1.788203	1.371638	2.304706	3.421396	2.161796	2.468342
2.462884	1.020903	2.104909	2.735876	1.386375	1.971031	0.940152	1.043024	1.215422	0.945257	2.06031	1.837096	2.478464	3.626955	2.28998	2.790528
2.446804	0.85246	2.064892	2.741777	1.469882	2.078027	0.991646	1.118397	0.968263	0.276066	1.712982	1.249669	2.077416	3.081427	1.985129	2.226264
2.342666	0.998991	2.075274	2.657048	1.492693	2.144212	0.991646	1.13955	1.012026	0.422883	1.796272	1.403993	2.206587	3.236849	2.05771	2.390632
2.231009	0.700196	1.931844	2.546653	1.367411	1.799452	0.814289	0.767239	0.992764	0.412721	1.758096	1.339236	2.061847	3.081427	1.963719	2.184266
2.283522	0.992653	2.023323	2.633063	1.362516	1.809574	0.810054	0.721073	0.793046	0.131874	1.560814	0.929169	2.101969	3.052463	1.920819	2.185934
2.211034	0.655021	1.880864	2.56765	1.405826	1.886304	0.852622	0.8738	0.852906	0.183922	1.567303	0.997612	2.046297	3.029928	1.841322	2.155596
2.283522	1.04263	2.008097	2.624347	1.359744	1.885235	0.80249	0.853249	0.737919	-0.02808	1.494548	0.905488	2.019519	2.977104	1.849916	2.107897
2.040647	0.432986	1.664989	2.356271	1.420701	2.055222	0.939906	1.170585	0.705065	-0.145214	1.419799	0.757324	1.875399	2.702817	1.689576	1.944817
2.375914	1.382845	2.158853	2.787483	1.158888	1.573764	0.626712	0.458565	0.656038	-0.110003	1.419799	0.69181	1.796698	2.58268	1.664462	1.95185
2.060487	0.461169	1.621002	2.324899	1.350547	2.003881	0.868986	0.983101	0.732531	-0.086381	1.428098	0.741343	1.448652	2.069643	1.398809	1.297943
2.232876	1.15167	1.979533	2.590954	1.176874	1.660564	0.693426	0.62315	0.76242	-0.004159	1.44968	0.751002	1.711711	2.4961	1.576671	1.709444
2.080326	0.59748	1.745502	2.397968	1.355463	1.963368	0.855911	0.969893	0.656038	-0.221465	1.360113	0.540891	2.307883	3.329103	2.0633	2.766808
2.401372	1.447358	2.25085	2.869549	1.446331	2.20104	0.976094	1.213145	1.125027	0.793289	1.898271	1.528399	1.76467	2.604249	1.624956	1.879454
2.138529	0.699052	1.847993	2.573562	1.480466	2.306571	1.058361	1.368507	1.08022	0.580929	1.856461	1.419027	2.021363	2.986047	1.825243	2.244486
2.414654	1.515107	2.336113	2.938726	1.412228	2.116839	0.972867	1.103278	0.806863	-0.080635	1.515776	0.791057	2.266339	3.277768	1.963384	2.589413
2.193873	0.732616	1.973081	2.687245	1.580992	2.433622	1.12659	1.502823	0.776753	-0.157769	1.532965	0.728131	2.193512	3.167423	1.914566	2.602529
2.327982	1.272381	2.215562	2.836192	1.32719	1.929551	0.790794	0.755446	1.026082	0.285036	1.766215	1.141009	2.517399	3.597726	2.161337	3.056188
2.157687	0.914988	1.983957	2.612984	1.548834	2.400264	1.101185	1.37086	0.741036	-0.331447	1.461895	0.558182	2.498301	3.685532	2.161337	3.092621
2.196928	0.898063	1.973081	2.671242	1.499035	2.218979	1.005909	1.208189	0.823657	-0.176371	1.558637	0.744438	2.260505	3.283302	1.989593	2.621869
2.35148	1.257377	2.194153	2.829073	1.385841	1.988713	0.850288	0.799329	0.936426	0.014239	1.683312	1.021066	2.70828	3.941906	2.291786	3.356094
2.3412	1.290125	2.153048	2.80981	1.353877	1.974379	0.86784	0.825433	1.029657	0.329221	1.801239	1.216775	2.443496	3.619294	2.151006	3.043362
2.248432	1.057251	2.028046	2.678783	1.363081	1.925618	0.843617	0.927232	1.292911	0.827585	2.07543	1.692985	2.203758	3.196563	1.97843	2.585913
2.329343	1.092018	2.083329	2.754961	1.345165	1.981971	0.872115	0.895329	1.06468	0.274195	1.796272	1.200896	2.538527	3.590168	2.214142	3.067984
2.313146	1.26834	2.130472	2.691328	1.356044	2.023034	0.896315	1.034948	1.147155	0.417084	1.884625	1.438854	2.320472	3.370253	2.041147	2.766056
2.084579	0.595471	1.75981	2.366537	1.260838	1.872863	0.807617	0.927232	1.30354	0.743584	2.07506	1.73649	2.093782	3.000884	1.865865	2.448988
2.290945	1.164944	2.093664	2.63081	1.2517	1.792634	0.754165	0.854399	1.132968	0.411747	1.888556	1.40867	1.815494	2.566447	1.659875	1.950756
2.00396	0.534079	1.690699	2.257355	1.138511	1.605224	0.59845	0.432707	0.927811	0.014239	1.610204	0.954482	2.19125	3.144636	1.900852	2.592308
2.119354	1.038265	1.927934	2.413665	1.12945	1.587999	0.59845	0.484441	1.05714	0.331246	1.761228	1.179279	1.948862	2.91958	1.741639	2.243507
2.000779	0.625731	1.72378	2.275652	1.2061	1.684889	0.665153	0.677975	0.983959	0.309863	1.708216	1.141009	2.05189	2.923964	1.764838	2.330332
2.158496	0.909073	1.873608	2.471103	1.318718	1.861156	0.766638	0.850548	0.737919	-0.210284	1.396576	0.582937	1.546259	2.326126	1.387071	1.556285
2.020069	0.590692	1.708957	2.30167	1.330035	1.881967	0.780777	0.905133	0.975141	0.290397	1.684361	1.203673	1.726139	2.648709	1.517391	1.849183
2.174649	1.175905	2.052847	2.575592	1.341356	1.986205	0.819947	0.925798	0.96631	0.224771	1.641555	1.209159	2.288854	3.515644	1.953398	2.808371
2.062127	0.699052	1.85536	2.463405	1.324136	1.914766	0.771704	0.802212	0.88269	0.090725	1.586404	1.135286	1.807151	2.888928	1.594092	2.072471
2.213081	1.04263	2.074187	2.690563	1.342976	1.887401	0.691229	0.621611	0.85074	0.055924	1.58231	1.141648	2.260422	3.550247	1.943408	2.814505
2.04915	0.456564	1.789468	2.500076	1.491851	2.116839	0.891962	1.022157	0.806863	-0.20569	1.423638	0.951223	2.099589	3.38286	1.807719	2.546613
2.184654	1.005256	2.060908	2.689089	1.374459	1.950012	0.836058	0.822551	1.017237	0.309863	1.719139	1.438854	1.928031	3.156085	1.722369	2.370933
2.088119	0.529349	1.858968	2.565827	1.429857	1.99287	0.819292	0.834101	1.054238	0.359576	1.786169	1.486229	1.892502	3.068531	1.702757	2.301328
2.133038	0.778986	1.957904	2.578759	1.521839	2.240086	0.991646	1.208189	1.117473	0.400953	1.769059	1.486229	2.128235	3.429339	1.885576	2.645085
2.071944	0.59748	1.803912	2.468567	1.403683	1.956718	0.810957	0.781894	0.966409	0.055924	1.620953	1.205076	1.962802	3.11919	1.72742	2.295241
2.25952	0.976894	2.049711	2.689089	1.420608	2.020779	0.847813	0.866212	0.899929	-0.174933	1.507341	0.940461	1.906174	2.979821	1.72742	2.237396
2.114162	0.574125	1.778143	2.452883	1.380937	1.882965	0.793405	0.810749	1.152294	0.42764	1.871524	1.597497	2.206947	3.393681	1.934402	2.549993
2.107459	0.519638	1.716379	2.382374	1.331146	1.816922	0.786689	0.828296	1.032773	0.159387	1.693229	1.274292	1.967668	3.081236	1.7552	2.270644
2.149747	0.529349	1.730635	2.397968	1.229283	1.608218	0.659393	0.552856	0.826105	-0.122242	1.524193	0.964115	1.713465	2.639609	1.551169	1.831894
2.068762	0.404825	1.621002	2.244353	1.177054	1.497931	0.641338	0.481295	0.950747	0.153964	1.659152	1.179279	1.710929	2.636575	1.513271	1.767352
2.023463	0.388544	1.599547	2.215996	1.093336	1.323009	0.584328	0.390599	0.980318	0.265546	1.73821	1.309356	1.842641	2.72885	1.587264	1.987177
2.036185	0.374845	1.60043	2.229417	1.111347	1.306114	0.562958	0.399981	0.790008	-0.062748	1.535141	1.015613	1.843048	2.739311	1.553922	2.021456
2.029534	0.632894	1.738693	2.253034	1.1293	1.389371	0.601357	0.457506	0.806032	0.066579	1.560886	1.024464	1.452671	2.167947	1.256579	1.303045
1.865766	0.419116	1.564164	2.044087	1.144706	1.403759	0.561972	0.398647	0.490045	-0.555478	1.177019	0.426654	1.617145	2.484668	1.381473	1.663537
1.996993	0.817606	1.796704	2.253086	1.106579	1.335704	0.547933	0.344598	0.501037	-0.431803	1.262701	0.619445	1.662531	2.620715	1.394683	1.789419
1.92673	0.564297	1.691257	2.237425	1.077442	1.232856	0.456987	0.134672	0.51705	-0.280882	1.269621	0.741343	1.672519	2.664364	1.384679	1.790243
1.977834	0.851736	1.82584	2.333093	1.174418	1.447459	0.565895	0.249317	0.462272	-0.482405	1.165971	0.572475	1.851563	2.94946	1.535181	2.078317
2.000518	0.824188	1.851594	2.374702	1.32575	1.736543	0.717605	0.612036	0.434075	-0.522154	1.129164	0.577106	2.068426	3.271346	1.703081	2.481027
2.192938	1.37542	2.212227	2.686656	1.468213	1.998952	0.879908	0.93373	0.536097	-0.409163	1.271931	0.803975	1.784912	2.839574	1.513872	2.150372
2.158496	1.149266	2.068101	2.617699	1.536429	2.043764	0.922477	0.861245	0.664257	-0.221465	1.404169	0.946718	2.021815	3.052791	1.704922	2.611231
2.097064	0.98951	1.888357	2.468595	1.451347	1.830397	0.821835	0.52266	0.765454	-0.244717	1.446889	0.949811	2.030764	3.069931	1.714617	2.628228
2.15158	1.252954	2.08956	2.617096	1.469882	1.782005	0.811782	0.545465	0.653301	-0.460568	1.369672	0.645665	1.988504	3.005901	1.743677	2.467593
2.219148	1.38311	2.206985	2.690563	1.691287	2.168369	1.128146	1.160728	0.880688	-0.157209	1.584453	0.938173	2.012703	2.952831	1.763029	2.440013
2.310152	1.265903	2.142764	2.728598	1.775664	2.321825	1.206195	1.277533	1.033156	0.172948	1.75244	1.096497	2.510485	3.659003	2.168573	3.202143
2.476562	1.829448	2.491157	2.915882	1.638183	2.0796	1.119902	1.090191	1.057818	-0.009881	1.726439	1.009597	2.387083	3.464987	2.075249	2.871318
2.296957	0.995246	2.046964	2.610203	1.51707	1.862634	1.012814	0.790571	0.994433	-0.127606	1.663991	0.860319	2.476527	3.551946	2.157002	3.044002
2.479428	1.598421	2.396187	2.879568	1.539216	1.834415	0.997353	0.810749	1.273523	0.387427	1.931841	1.309356	2.301213	3.312695	2.090192	2.781125
2.122427	0.607276	1.844153	2.421565	1.588258	2.007089	1.166354	1.144482	1.092919	0.244037	1.767005	1.048442	2.203336	3.236849	1.948286	2.645085
2.407132	1.297487	2.236793	2.628501	1.408616	1.66415	0.986335	0.810749	1.516537	1.20484	2.293478	1.876619	2.326768	3.317906	2.053725	2.813371
2.403023	0.903704	2.161268	2.504266	1.505336	1.859905	1.115471	1.123298	1.114866	0.402406	1.845361	1.068439	2.304706	3.356578	2.019401	2.808371
2.301583	0.953448	2.024119	2.350837	1.398013	1.745603	1.018799	0.964863	1.140149	0.417821	1.853195	1.138613	2.225553	3.293571	1.946366	2.700176
1.984082	0.14849	1.576993	1.980694	1.305257	1.656627	0.972867	0.879182	1.299526	0.895448	2.074389	1.43605	1.538816	2.236423	1.424853	1.666397
2.270851	1.025241	1.986703	2.363258	1.263788	1.587737	0.938569	0.822712	0.925771	0.075265	1.615791	0.734814	2.128235	3.108732	1.843331	2.665472
1.875027	0.052858	1.436058	1.868834	1.31946	1.809095	1.036288	1.139912	0.999012	0.216508	1.725049	0.902926	1.572378	2.318814	1.440593	1.724552
1.966195	0.616177	1.597082	1.999838	1.092618	1.413961	0.80688	0.643009	0.928082	0.191537	1.684322	0.884183	1.977666	2.797733	1.726458	2.380831
1.883817	0.335293	1.455585	1.897375	1.112859	1.403759	0.789544	0.69157	0.856154	0.101551	1.602188	0.786472	1.803679	2.599724	1.601053	2.13542
1.773001	0.232247	1.332228	1.792477	1.096959	1.434321	0.76026	0.594577	0.444559	-0.719486	1.140798	0.079975	1.258493	1.913341	1.180796	1.217199
1.927624	0.688538	1.524697	1.968612	0.96508	1.224242	0.661987	0.387848	0.423086	-0.741404	1.064756	0.058248	1.831117	2.89904	1.623512	2.300202
1.985079	0.778787	1.574867	2.052324	1.018682	1.342643	0.735392	0.515201	0.527904	-0.441413	1.145339	0.244587	1.650258	2.650078	1.528573	2.000995
1.924617	0.564297	1.375857	1.937029	1.061459	1.392912	0.691886	0.460522	0.697876	0.021244	1.384269	0.70852	1.936782	3.018114	1.719116	2.393471
2.05163	0.659077	1.469269	2.023679	1.08826	1.48543	0.768934	0.646462	0.595765	-0.140239	1.252368	0.524565	1.870329	3.006965	1.673587	2.34541
2.093491	0.72213	1.538601	2.118926	0.989826	1.285566	0.654401	0.38425	0.5147	-0.465021	1.102075	0.292412	1.568698	2.55096	1.471041	1.859947
2.004877	0.300554	1.276031	1.976741	1.113173	1.4269	0.675238	0.42569	0.601489	-0.279756	1.216968	0.46954	1.728671	2.757148	1.601053	2.113599
2.160228	0.761892	1.571578	2.173199	1.155576	1.488868	0.7591	0.540591	0.761389	0.040191	1.388266	0.82545	1.786134	2.898189	1.603074	2.079353
2.068639	0.33664	1.396883	2.087939	1.138131	1.399223	0.704209	0.410052	0.891345	0.301695	1.498963	1.038858	1.770861	2.749654	1.610679	2.001422
2.304173	0.909073	1.731412	2.333093	1.160654	1.330323	0.64425	0.310197	0.753986	0.053543	1.404868	0.805172	1.849637	2.892258	1.683327	2.221532
2.19063	0.510384	1.508627	2.14418	1.353283	1.704401	0.932156	0.944061	0.631483	-0.297757	1.271931	0.61302	1.632256	2.617391	1.499879	1.802703
2.292704	0.778787	1.683888	2.250351	1.21009	1.468031	0.817614	0.600233	0.926327	0.346873	1.625023	1.235259	1.892502	2.933141	1.739988	2.255074
2.257705	0.550574	1.534307	2.136548	1.334302	1.653709	0.931379	0.89164	0.929769	0.260228	1.569453	1.044317	1.861497	2.851694	1.69682	2.236611
2.273756	0.715825	1.593014	2.14707	1.410631	1.794537	1.069434	1.134548	0.76297	-0.056869	1.406422	0.730915	1.901083	2.93848	1.746177	2.270644
2.429817	1.147407	1.8512	2.330435	1.308906	1.588169	0.941167	0.879182	1.103319	0.626628	1.758096	1.289652	1.864991	2.800598	1.675811	2.165166
2.356982	0.767317	1.597082	2.149902	1.314426	1.643423	0.975326	0.932824	0.892422	0.037912	1.474671	0.754175	1.755606	2.635979	1.589671	1.951685
2.321954	0.699052	1.542779	2.065158	1.277788	1.519619	0.931379	0.865594	0.828378	-0.05762	1.439128	0.638168	1.640483	2.585788	1.524282	1.864414
2.310367	0.749426	1.549276	2.013085	1.293362	1.481978	0.952147	0.89979	0.796005	-0.174933	1.416895	0.580335	1.857991	2.835148	1.685519	2.20087
2.506982	1.155573	1.734984	2.175657	1.318718	1.550435	0.964325	0.91222	1.142001	0.555184	1.788203	1.170875	1.711711	2.519486	1.528196	1.808294
2.376485	0.719084	1.534307	1.958548	1.169731	1.221952	0.82517	0.545465	0.933136	0.066579	1.515776	0.743286	1.685565	2.535153	1.558813	1.800727
2.422148	0.92628	1.570647	1.997118	1.282073	1.406936	0.923683	0.850548	0.892422	0.002349	1.452883	0.665497	1.730557	2.611133	1.618406	1.929866
2.37204	0.446044	1.434309	1.928298	1.379578	1.584776	1.05195	0.97523	1.024384	0.244037	1.633858	0.946972	2.064107	3.024179	1.831389	2.406673
2.530051	1.121687	1.69813	2.115384	1.384552	1.595145	0.992892	0.909451	1.184635	0.575892	1.85147	1.336693	2.183578	3.225452	1.899712	2.632131
2.482952	0.85575	1.660773	2.072566	1.456856	1.743234	1.096281	1.098097	1.070098	0.359576	1.759114	1.195273	2.143176	3.190557	1.862371	2.536999
2.548198	1.046954	1.796486	2.215378	1.562319	1.896237	1.22225	1.277184	1.218317	0.575892	1.866603	1.366624	2.148879	3.288969	1.886019	2.668306
2.453319	0.909202	1.752904	2.166441	1.53743	1.761182	1.175933	1.092844	1.222199	0.524627	1.84326	1.38897	2.078352	3.167423	1.853682	2.51951
2.447418	0.885946	1.818703	2.220714	1.712926	2.108546	1.383902	1.496004	1.34959	0.719499	1.942366	1.516655	2.218346	3.382386	1.979505	2.824172
2.528957	1.029698	1.932509	2.340405	1.814555	2.294741	1.546732	1.753708	1.048607	0.02022	1.568917	0.827345	1.953977	3.004534	1.764966	2.382479
2.613564	1.294816	2.057649	2.468651	1.735832	2.111694	1.383902	1.368507	1.283237	0.451047	1.79611	1.277065	2.345846	3.539309	2.066953	3.05642
2.548198	1.144326	1.961747	2.400687	1.696595	2.019739	1.341133	1.290929	1.364011	0.49397	1.834294	1.276907	2.447683	3.730781	2.18974	3.209418
2.579747	1.10471	1.998879	2.455441	1.758753	2.114827	1.409693	1.368507	1.199526	0.193299	1.612025	0.794323	2.014444	2.998403	1.893237	2.528136
2.468159	1.006731	1.917735	2.345704	1.752707	2.057045	1.406586	1.308538	1.253013	0.223412	1.702883	0.973532	1.850941	2.814962	1.788275	2.251945
2.358112	0.719084	1.723172	2.193929	1.806631	2.135773	1.48818	1.584415	1.233391	0.217564	1.715872	1.006554	2.031649	2.948331	1.93209	2.51951
2.451829	0.937966	1.866331	2.359015	1.72161	1.942411	1.39408	1.32254	1.569695	0.880598	2.025595	1.511806	2.171206	3.144636	2.019838	2.757726
2.386583	0.846563	1.778555	2.254944	1.88901	2.312767	1.58116	1.745698	1.466969	0.719499	1.957538	1.339236	2.333188	3.323519	2.14673	2.910017
2.389597	0.983693	1.742029	2.22129	1.654848	1.928109	1.382742	1.37558	1.648547	1.08872	2.073564	1.577935	2.276078	3.363546	2.150399	2.928762
2.380527	0.91465	1.74894	2.246732	1.743862	2.195999	1.581632	1.749736	1.418369	0.64262	1.85147	1.162996	2.387216	3.4104	2.231318	2.989362
2.398584	1.177924	1.818805	2.299439	1.621448	2.010284	1.457022	1.527038	1.614375	1.067191	2.0793	1.532947	2.026502	2.888928	1.928844	2.375289
2.305192	0.874243	1.628501	2.16413	1.294452	1.412633	1.11382	0.770325	1.296186	0.458158	1.681193	0.88778	1.761697	2.582074	1.819259	2.077919
2.168479	0.68744	1.531138	2.063743	1.461035	1.735797	1.296633	1.241815	1.321647	0.631515	1.773146	1.05783	1.981697	2.778129	1.93209	2.37993
2.187736	0.531306	1.464762	2.040155	1.415673	1.732501	1.299711	1.244231	1.112276	0.142998	1.487984	0.567169	1.887319	2.601429	1.844557	2.229668
2.257448	1.068374	1.753197	2.198944	1.086467	1.156998	0.93465	0.484441	1.409831	0.721916	1.800266	1.215556	1.861497	2.708976	1.823228	2.308198
2.010294	0.264017	1.353159	1.89103	1.306088	1.591046	1.200721	1.201494	1.292911	0.550187	1.648731	0.961184	1.643745	2.469096	1.654362	1.965464
2.302933	1.096872	1.844024	2.255559	1.171921	1.341186	1.02984	0.807922	0.903176	-0.133556	1.312116	0.342216	2.05738	3.029588	1.970931	2.710942
2.171569	0.478725	1.526793	2.055263	1.32653	1.663246	1.203798	1.042775	1.09132	0.329221	1.582172	0.866584	1.602802	2.445533	1.620939	1.877307
2.203009	0.710615	1.676944	2.162359	1.239599	1.423354	1.026628	0.7501	1.171629	0.336494	1.573731	0.89939	2.269921	3.432276	2.133447	2.995377
2.193873	0.470123	1.625227	2.145847	1.264344	1.4269	1.058361	0.732781	1.311512	0.678576	1.762878	1.249669	1.696511	2.522263	1.732007	2.057976
2.383881	0.914988	1.942932	2.418972	1.531247	1.936519	1.357097	1.322943	1.075429	0.174803	1.50026	0.77105	1.779944	2.681126	1.772698	2.136399
2.27172	0.405603	1.686571	2.210031	1.479573	1.861156	1.281124	1.150591	1.01507	-0.069364	1.431	0.668594	2.021363	3.068531	1.977161	2.512619
2.506148	1.164944	2.107931	2.562514	1.346267	1.626163	1.17434	0.776147	0.948804	-0.279748	1.304484	0.435373	2.396356	3.524411	2.253122	3.104342
2.410438	0.761069	1.991238	2.481748	1.681317	2.237829	1.532786	1.568687	1.199526	0.169676	1.58795	0.870909	2.199289	3.190534	2.107803	2.694783
2.435453	0.863942	2.024119	2.510497	1.461922	1.77469	1.257341	1.0195	1.372227	0.487185	1.785186	1.252566	2.530385	3.696231	2.397732	3.294773
2.448771	1.114315	2.14889	2.581178	1.514633	1.833731	1.311779	1.092844	1.580005	0.841824	1.999668	1.528399	2.250561	3.277606	2.150399	2.72133
2.489915	1.074624	2.130472	2.617699	1.663857	2.124148	1.520827	1.540199	1.387757	0.472829	1.810879	1.173742	2.368129	3.393681	2.238581	2.910017
2.371958	0.998991	2.037567	2.49961	1.459816	1.822874	1.318035	1.100696	1.668399	1.076499	2.100154	1.73434	2.140875	3.195787	2.103041	2.564643
2.20196	0.620641	1.862597	2.356474	1.421466	1.66758	1.265418	1.066587	1.309418	0.318122	1.733091	1.021537	2.106149	3.085425	2.067707	2.498697
2.188869	0.428447	1.720302	2.291465	1.437077	1.715817	1.260488	1.077098	1.32774	0.428611	1.776624	1.057372	2.453933	3.502934	2.291594	2.965195
1.996468	0.120615	1.466179	2.058408	1.300949	1.447459	1.145671	0.781894	1.259848	0.373261	1.741832	1.012617	1.979948	2.930103	1.944314	2.266287
2.088607	0.565545	1.673422	2.224503	1.212669	1.290526	1.05195	0.606171	1.295057	0.420488	1.743967	1.048442	2.142179	3.127195	2.057613	2.496942
2.025395	0.384062	1.578972	2.164738	1.347739	1.574365	1.19639	0.957093	1.360539	0.550187	1.788203	1.143849	1.906174	2.800598	1.833004	2.20087
2.09161	0.795525	1.778157	2.273707	1.392185	1.796465	1.262901	1.175409	1.316588	0.468564	1.70468	1.041549	1.945519	2.913512	1.87011	2.280442
1.964502	0.632149	1.601037	2.121296	1.351192	1.717381	1.229253	1.125722	1.351138	0.698216	1.82035	1.200532	1.847397	2.884762	1.782362	2.172683
1.904077	0.620641	1.578972	2.138899	1.227838	1.447878	1.028383	0.721073	1.297943	0.667255	1.762169	1.173457	1.918124	2.960328	1.786289	2.26548
1.920064	0.501144	1.535367	2.159456	1.367486	1.759722	1.197635	1.011698	1.312309	0.657515	1.77518	1.225082	1.749412	2.786235	1.647841	2.101023
1.971184	0.829901	1.589697	2.247611	1.290589	1.529904	1.083689	0.778303	0.908528	-0.210284	1.294861	0.452579	1.648173	2.71292	1.545034	1.94141
1.741062	0.256333	1.30177	2.018653	1.309547	1.591709	1.078998	0.805076	1.06468	0.096383	1.490179	0.825678	1.813179	2.878639	1.682846	2.258528
1.984082	0.976894	1.764111	2.395501	1.239599	1.416221	0.990324	0.597236	1.278566	0.621704	1.758096	1.316928	2.165414	3.323519	1.877866	2.69389
1.728377	0.348569	1.404431	2.122994	1.318718	1.66758	1.093261	0.802212	1.21949	0.417084	1.668249	1.146641	1.847397	2.888928	1.631626	2.25153
1.795459	0.688538	1.571578	2.205935	1.226138	1.498673	0.955397	0.504062	0.969743	-0.13453	1.373177	0.575987	1.651564	2.582074	1.496669	1.864414
1.759899	0.404825	1.443618	2.181723	1.327895	1.615757	1.026628	0.663088	1.341088	0.596503	1.758723	1.26361	1.797875	2.802468	1.631626	2.179799
1.804668	0.519638	1.49489	2.239042	1.403683	1.799761	1.110607	0.80487	1.140617	0.133272	1.547649	0.850744	1.912494	3.002641	1.673201	2.317089
1.923451	0.557577	1.555635	2.37961	1.452659	1.847897	1.161517	0.857225	1.291044	0.414946	1.713694	1.117561	2.190212	3.394412	1.926917	2.64865
2.004106	0.778986	1.782316	2.576006	1.528118	2.032836	1.241177	1.034948	1.139065	0.043993	1.558281	0.840954	2.250561	3.452878	1.98001	2.83704
1.987908	0.444799	1.690699	2.539522	1.60905	2.118514	1.271725	1.132163	1.119613	-0.098897	1.498015	0.717969	2.262318	3.500623	2.005653	2.821244
2.107794	0.841204	1.976246	2.699978	1.539216	1.954078	1.195071	0.977454	1.443431	0.570816	1.893779	1.38897	2.154478	3.324071	1.920783	2.5716
2.068929	0.630738	1.851571	2.629186	1.588258	2.023034	1.214224	0.997592	1.359792	0.348467	1.801978	1.249748	2.444163	3.709479	2.172774	3.038172
2.179052	0.970696	2.126312	2.865684	1.520587	1.925618	1.132851	0.80487	1.432866	0.570323	1.925191	1.397953	2.355275	3.535935	2.063032	2.827938
1.887612	0.196277	1.690699	2.48697	1.440659	1.712578	1.032527	0.618464	1.339321	0.241842	1.724537	1.071906	2.434846	3.663777	2.157556	2.910017
2.055777	0.74514	1.982708	2.688412	1.410769	1.743979	1.067646	0.700035	1.575206	0.76684	1.995772	1.501844	1.832055	2.728798	1.678409	1.897776
2.004098	0.541047	1.891894	2.626134	1.483408	1.876244	1.166354	0.918706	1.487052	0.564967	1.896889	1.340223	1.914648	2.876447	1.775014	2.107758
1.984733	0.756387	1.877069	2.578393	1.412228	1.851233	1.090087	0.744241	1.403888	0.487185	1.862525	1.241156	2.158836	3.184607	1.946505	2.424629
1.826414	0.364779	1.621919	2.361539	1.436253	1.826165	1.060015	0.836776	1.238888	0.133272	1.670368	0.916837	1.952469	2.992241	1.824036	2.14375
1.987961	0.970696	1.923992	2.604023	1.503356	1.990708	1.164147	1.089837	1.201161	0.156187	1.584453	0.744587	1.988504	3.028746	1.861942	2.258528
1.868577	0.479946	1.648005	2.398133	1.533304	1.974951	1.157965	1.103278	1.274263	0.356267	1.734151	1.062839	2.047198	3.056394	1.859493	2.345482
1.875145	0.790214	1.738594	2.403155	1.495013	1.937858	1.210914	1.256048	1.086574	-0.069004	1.556524	0.861181	1.704421	2.619889	1.551406	1.734274
1.852475	0.705325	1.673422	2.356538	1.236407	1.488868	0.946642	0.669413	1.06226	0.031193	1.520287	0.796143	1.904144	2.818691	1.723133	2.086507
1.862334	0.717046	1.684346	2.421261	1.158461	1.412633	0.843918	0.500896	0.994341	-0.086381	1.454059	0.69823	1.828501	2.738603	1.713743	2.065247
1.826904	0.835419	1.651786	2.315054	1.303978	1.773847	1.011078	0.842339	1.186915	0.452896	1.674585	1.138159	1.587712	2.390163	1.524682	1.694146
1.620984	0.26021	1.387839	2.113079	1.270788	1.736543	1.015815	0.877696	1.164358	0.417821	1.680292	1.165644	1.881682	2.921783	1.740839	2.057976
1.836381	0.812909	1.691542	2.390319	1.133461	1.48158	0.885152	0.53625	1.226344	0.657515	1.779227	1.369142	1.821357	2.79959	1.687747	2.0222
1.842531	0.625731	1.625964	2.36949	1.456998	2.139413	1.256573	1.325283	1.022432	0.161814	1.53731	0.89634	1.712654	2.66672	1.644738	1.949038
1.865279	0.716766	1.666124	2.40332	1.189725	1.543473	0.892865	0.555984	0.991017	0.049979	1.502497	0.967278	2.192602	3.341891	2.019483	2.625587
1.784107	0.461169	1.49489	2.270361	1.225684	1.674399	0.981104	0.796429	1.390433	1.017623	1.9601	1.667319	1.553622	2.356701	1.547574	1.603374
2.000837	1.068374	1.895318	2.601762	1.346996	1.918933	1.107264	1.022157	1.005049	0.121567	1.485216	0.870909	2.301213	3.388652	2.094758	2.783402
1.722094	0.175737	1.392229	2.176372	1.361167	1.920368	1.063175	0.901033	1.273523	0.673569	1.814287	1.444026	1.792272	2.6823	1.70299	1.926006
1.98464	0.99416	1.804167	2.497196	1.375339	1.976501	1.142375	1.05028	1.135391	0.434282	1.646682	1.229371	2.199289	3.341891	2.069015	2.625587
1.808755	0.316653	1.529896	2.308973	1.50746	2.175103	1.298513	1.344526	0.936426	-0.111283	1.390499	0.681166	2.444622	3.665439	2.26206	3.019763
2.036421	0.863942	1.829768	2.554969	1.596249	2.360694	1.392588	1.502823	1.071921	0.223412	1.5605	0.957717	1.883711	2.821389	1.783588	2.01882
1.941899	0.55521	1.708957	2.442471	1.506455	2.135773	1.259821	1.303596	1.140617	0.30686	1.623028	1.171857	2.215995	3.262592	2.042609	2.463066
1.945252	0.818549	1.826089	2.526053	1.337078	1.851233	1.10753	0.892449	1.073573	0.174803	1.521983	0.937297	2.444622	3.630237	2.244104	2.90368
1.818094	0.203876	1.573838	2.348164	1.305787	1.730055	0.994886	0.667638	1.131643	0.282238	1.616643	1.090492	2.194797	3.234836	2.040961	2.462302
1.955252	0.846603	1.862217	2.572775	1.437077	1.949029	1.090087	0.863294	1.350446	0.798072	1.877677	1.57487	2.106149	3.094312	1.951498	2.367554
1.83177	0.404825	1.567423	2.366797	1.616976	2.318692	1.332322	1.418941	1.198876	0.523359	1.715836	1.29002	2.10271	3.146669	1.969373	2.244703
1.912792	0.716766	1.753187	2.520878	1.515749	2.084415	1.216911	1.195489	1.380001	0.880598	1.948337	1.645955	1.838264	2.670377	1.775074	1.778219
1.935164	0.595471	1.752904	2.536862	1.572641	2.1925	1.248597	1.279683	1.379307	0.777612	1.854286	1.503107	2.393542	3.44755	2.168443	2.642007
2.1373	1.272381	2.055872	2.764251	1.627586	2.379121	1.310976	1.402129	1.103685	0.060503	1.535702	0.974594	2.203689	3.233009	2.060574	2.360766
1.954792	0.801115	1.8115	2.526284	1.614954	2.393986	1.340582	1.443043	1.25723	0.476123	1.743967	1.284089	2.665632	3.897155	2.38418	3.09922
2.091688	1.114315	1.990666	2.72567	1.560241	2.240086	1.215634	1.176954	1.404475	0.808065	1.946354	1.610496	2.127072	3.091897	1.98877	2.150232
2.000261	0.709237	1.782084	2.576283	1.736417	2.560139	1.397921	1.602163	1.511579	1.011726	2.094377	1.878611	2.415715	3.512539	2.166586	2.621806
2.065668	0.875296	1.855331	2.578393	1.60797	2.264321	1.247423	1.314891	1.448395	0.808065	1.96349	1.70443	2.318922	3.423189	2.136564	2.448118
2.000261	0.647394	1.763788	2.53149	1.518813	2.057045	1.150371	1.13485	1.394456	0.715241	1.877677	1.511283	2.457398	3.518435	2.188541	2.548978
2.212439	1.261535	2.158853	2.826919	1.545743	2.126367	1.216911	1.198065	1.438451	0.875695	1.946354	1.640963	2.156551	3.117328	1.983172	2.136399
2.036421	0.880755	1.971571	2.640337	1.473293	2.084415	1.139234	1.055789	1.163781	0.235904	1.62936	1.143694	2.371169	3.412238	2.128654	2.388528
1.96187	0.75632	1.858357	2.541028	1.323601	1.76458	0.944414	0.653932	1.154811	0.169676	1.568917	1.119734	2.409177	3.589697	2.166586	2.542077
1.844563	0.376686	1.683888	2.424214	1.483738	2.058365	1.109014	1.0195	1.12782	0.144812	1.58016	1.117561	2.309783	3.44141	2.076808	2.353337
1.958566	0.547732	1.822378	2.593801	1.638997	2.300757	1.216911	1.306076	1.156197	0.1991	1.629547	1.256703	2.287231	3.399662	2.112692	2.382479
1.864157	0.284472	1.65421	2.429388	1.568525	2.216605	1.174053	1.145416	1.380532	0.750596	1.912833	1.770232	2.460617	3.696306	2.218341	2.714762
