fnirSoft:	Exported Text File
Version:	4.2
ExportDate:	12/18/2023 11:37:17 AM
VariableInfo
Name:	oxygraph42.hbr.Block1
Size:	1939 x 16
Type:	Numeric
Content:	Hemoglobin
Date:	12/18/2023 11:37:06 AM
Notes:	Deoxygenated-hemoglobin concentration changes data saved by Oxygraph from file C:\Users\Anette Johansson\Documents\COBI Studio Data\friska kontroller\2047K\ANETTE_2047K_3_05270841.oxy
Labels:	HBR	DATA
VariableData
Hemoglobin	Hemoglobin	Hemoglobin	Hemoglobin	Hemoglobin	Hemoglobin	Hemoglobin	Hemoglobin	Hemoglobin	Hemoglobin	Hemoglobin	Hemoglobin	Hemoglobin	Hemoglobin	Hemoglobin	Hemoglobin
Optode1	Optode2	Optode3	Optode4	Optode5	Optode6	Optode7	Optode8	Optode9	Optode10	Optode11	Optode12	Optode13	Optode14	Optode15	Optode16
0.320943	0.748388	0.533566	0.345873	0.194013	0.111729	0.197755	0.285118	-0.159412	-0.332711	-0.300545	-0.451707	0.431689	0.426244	0.464379	0.618993
0.24793	0.40963	0.350802	0.200541	0.272637	0.300356	0.296364	0.439841	-0.106955	-0.303153	-0.271295	-0.328156	0.246156	0.197464	0.268426	0.275197
0.24747	0.363784	0.289887	0.191997	0.14269	0.018477	0.172135	0.158452	0.055037	0.001175	-0.083177	-0.046493	0.205058	0.104856	0.256228	0.238781
0.315664	0.613166	0.414573	0.282572	0.093004	-0.069212	0.073883	0.067885	-0.127738	-0.381419	-0.25879	-0.361195	-0.061854	-0.204507	0.049791	-0.230642
0.148343	0.012769	0.060051	0.036766	0.14578	0.078927	0.137128	0.212382	-0.080678	-0.355277	-0.248318	-0.413268	-0.093975	-0.25079	0.070167	-0.213445
0.278651	0.373633	0.265438	0.236063	0.154198	0.209171	0.254082	0.394015	-0.126287	-0.450797	-0.250429	-0.432628	0.210459	0.231566	0.259955	0.287694
0.17177	0.010254	0.020885	0.06589	0.222795	0.306045	0.34583	0.60498	-0.195585	-0.660325	-0.377869	-0.705889	0.216913	0.265662	0.227774	0.299557
0.221021	0.239771	0.207634	0.229551	0.048053	0.002265	0.109936	0.128616	0.003849	-0.218643	-0.16979	-0.301445	0.220452	0.312355	0.230475	0.40058
0.218012	0.190415	0.24359	0.248075	0.079673	0.045015	0.135344	0.209678	-0.12928	-0.527675	-0.296453	-0.498386	0.076668	0.132055	0.131409	0.252039
0.27569	0.451746	0.298075	0.305029	-0.035836	-0.143904	0.003746	-0.115438	0.077652	-0.085543	-0.056281	-0.038283	0.341306	0.49639	0.348203	0.695995
0.163488	0.180521	0.173332	0.18211	-0.173238	-0.072487	0.092253	-0.156967	-0.022532	-0.10904	-0.421145	-0.257633	0.421907	0.641166	0.294808	0.810346
-0.167912	-0.131806	0.063653	-0.0354	-0.697123	-0.249399	-0.084454	-1.364725	-1.099362	-0.944838	-1.439307	-0.888309	-0.463829	-0.404604	-0.969828	-0.580865
-0.266529	0.252684	0.153382	0.045859	-1.331011	-0.475586	-0.480376	-2.624049	-1.902383	-1.477165	-1.890009	-1.218827	-0.582298	-0.555527	-1.317835	-0.625525
-0.523141	-0.42272	-0.32961	-0.216231	-1.32362	-0.461189	-0.642642	-2.352937	-1.889942	-1.177014	-1.509724	-0.770876	-0.147504	0.169507	-0.870184	0.338751
-0.268664	0.310182	-0.079611	0.088929	-1.185042	-0.565526	-0.791576	-2.153809	-2.130797	-1.707286	-1.534801	-1.068813	-0.269502	0.045611	-0.845296	0.109141
-0.461737	-0.413068	-0.47614	-0.151479	-1.085451	-0.592277	-0.854718	-1.908908	-1.827037	-1.218743	-0.997331	-0.515334	-0.833235	-0.812115	-1.144008	-0.756842
-0.288615	-0.039923	-0.271056	-0.049001	-0.811593	-0.290162	-0.72093	-1.332379	-2.144183	-2.029349	-1.24553	-1.149703	-0.443396	-0.228655	-0.808842	-0.113713
-0.208893	-0.180816	-0.362762	-0.121312	-0.735636	-0.325236	-0.764785	-1.257163	-1.968176	-1.906312	-1.034612	-0.979281	-0.434401	-0.247107	-0.755682	-0.18951
-0.118442	0.091743	-0.177941	0.02059	-0.570293	-0.138144	-0.618387	-0.898272	-1.591795	-1.052657	-0.510901	-0.298856	-0.106776	0.16625	-0.476271	0.273747
-0.210116	-0.175629	-0.366555	-0.150751	-0.579093	-0.263784	-0.706236	-0.95138	-1.699939	-1.468697	-0.689445	-0.584479	-0.572038	-0.50512	-0.767423	-0.49829
-0.114218	0.088339	-0.199623	-0.017173	-0.342235	0.101832	-0.429611	-0.393415	-1.741971	-1.601884	-0.753573	-0.849471	0.021917	0.311696	-0.265576	0.434165
-0.094224	-0.031466	-0.24211	-0.082166	-0.521521	-0.353737	-0.637747	-0.850167	-1.220942	-0.6061	-0.241049	-0.017323	-0.201363	-0.057769	-0.43923	-0.078502
-0.048952	0.19762	-0.126898	0.000527	-0.279585	0.108138	-0.337471	-0.252768	-1.496967	-1.318261	-0.632786	-0.719371	-0.323596	-0.198875	-0.544227	-0.283053
-0.023645	0.252366	-0.097829	0.062899	-0.27553	0.055231	-0.292428	-0.16486	-1.365175	-1.048836	-0.488475	-0.472565	-0.076516	0.088796	-0.339444	0.06249
-0.045014	0.027224	-0.212843	0.011708	-0.411454	-0.229499	-0.463182	-0.578977	-1.189435	-0.682919	-0.325796	-0.22409	-0.146791	0.009565	-0.385117	0.020526
0.065044	0.197312	-0.206978	0.065969	-0.275713	0.074971	-0.279561	-0.232074	-0.935326	-0.324274	-0.138881	-0.057295	-0.205882	-0.081986	-0.456333	-0.15548
0.093895	0.30966	-0.136779	0.144174	-0.204527	0.245529	-0.124612	0.054372	-1.13935	-0.885365	-0.367388	-0.459911	-0.513055	-0.457427	-0.653333	-0.563917
0.124714	0.28966	-0.167812	0.166235	-0.20615	0.232373	-0.114538	0.088274	-0.948023	-0.408873	-0.154026	-0.124416	-0.217459	-0.056513	-0.439785	-0.03427
0.000251	-0.174062	-0.458193	-0.013711	-0.129201	0.38367	-0.00134	0.289149	-0.585342	0.221726	0.257951	0.56941	-0.18676	0.010872	-0.417242	0.060158
0.057978	0.052994	-0.353719	0.051465	-0.281447	0.089377	-0.144902	-0.116032	-0.746633	-0.231844	-0.012899	0.104918	-0.216788	-0.032725	-0.461064	-0.049069
0.050737	0.08115	-0.310058	0.100912	-0.174675	0.318988	0.049167	0.201238	-0.719392	-0.19379	0.001906	0.18245	-0.026992	0.233708	-0.30636	0.296977
0.088707	0.322002	-0.131091	0.261221	-0.153683	0.349336	0.054242	0.239339	-0.623835	-0.016343	0.07607	0.180379	-0.286271	-0.143187	-0.438719	-0.114446
-0.01058	-0.174062	-0.425493	0.038337	-0.211613	0.193217	0.028845	0.099641	-0.557174	0.169549	0.17365	0.396762	0.167905	0.560298	-0.086902	0.769679
0.072422	0.21941	-0.300538	0.145862	-0.319377	-0.079975	-0.09026	-0.186827	-0.637514	-0.111822	0.010329	0.117128	-0.026992	0.311076	-0.153926	0.49066
-0.041467	-0.244479	-0.565941	-0.068293	-0.248559	0.114661	0.013583	0.017378	-0.671778	-0.192283	-0.005607	0.117128	-0.247115	-0.027694	-0.302335	0.111191
0.077853	0.249565	-0.327145	0.086122	-0.279441	-0.01397	-0.062074	-0.153961	-0.856189	-0.699288	-0.235124	-0.331364	0.028399	0.33116	-0.132019	0.471648
0.005417	0.002656	-0.397532	0.003263	-0.330191	-0.131849	-0.140192	-0.307172	-0.789545	-0.433867	-0.136878	-0.190939	0.074161	0.339967	-0.044311	0.478477
0.137596	0.572751	-0.131091	0.121196	-0.222678	0.068669	-0.031653	-0.06878	-0.593041	-0.098676	0.105775	0.245928	-0.190484	-0.013238	-0.248034	0.094241
-0.071956	-0.174062	-0.497092	-0.169702	-0.298362	-0.112024	-0.109784	-0.259885	-0.789545	-0.367091	-0.076603	-0.200266	-0.129468	-0.003637	-0.262218	0.065094
0.083281	0.479761	-0.236355	0.022552	-0.40852	-0.314935	-0.240184	-0.500212	-0.746633	-0.277172	0.025196	0.014593	0.093722	0.372794	-0.03252	0.527138
-0.026844	0.042942	-0.386505	-0.10054	-0.233839	0.024985	-0.08191	-0.12051	-1.026369	-0.832736	-0.259491	-0.490609	0.045569	0.256581	-0.108404	0.382341
0.095814	0.517175	-0.15539	0.074819	-0.331295	-0.169909	-0.249918	-0.372851	-0.760276	-0.382811	0.009313	-0.007784	-0.147164	0.010492	-0.189134	0.084303
-0.024941	0.093121	-0.297611	-0.056924	-0.309402	-0.074793	-0.169877	-0.267449	-0.912701	-0.533173	-0.152998	-0.257633	0.01198	0.260615	-0.04369	0.359116
0.135503	0.652751	-0.043832	0.1867	-0.205019	0.082034	-0.086951	-0.086021	-0.613833	0.039809	0.193519	0.344417	0.046988	0.304297	-0.069825	0.347061
0.036216	0.143101	-0.344567	-0.043869	-0.277783	-0.122403	-0.16223	-0.237586	-0.909671	-0.622102	-0.144819	-0.260967	0.001509	0.31534	-0.061306	0.352617
-0.026752	-0.133998	-0.467472	-0.162211	-0.311555	-0.177311	-0.16971	-0.281129	-0.806224	-0.3698	-0.040386	-0.113617	-0.077399	0.203377	-0.107663	0.191285
0.095814	0.217359	-0.285176	-0.032488	-0.267687	-0.058394	-0.15476	-0.184591	-1.033192	-0.937882	-0.32542	-0.479856	-0.167389	0.096122	-0.170868	0.06176
0.093895	0.165196	-0.266547	-0.025106	-0.326284	-0.259027	-0.194834	-0.282734	-0.819889	-0.395835	-0.039404	-0.040208	-0.377248	-0.185892	-0.318905	-0.306098
0.095814	0.177233	-0.213194	-0.023762	-0.442161	-0.495924	-0.340172	-0.653376	-1.007994	-0.766984	-0.248075	-0.398385	-0.472362	-0.381667	-0.411693	-0.54798
-0.024941	-0.389369	-0.557473	-0.2288	-0.288551	-0.204263	-0.164836	-0.201738	-0.932225	-0.726457	-0.224466	-0.369279	-0.303617	-0.176669	-0.256324	-0.155343
0.12277	0.059153	-0.196482	-0.007708	-0.290417	-0.255538	-0.114847	-0.133167	-1.129106	-1.094578	-0.420402	-0.69667	-0.37303	-0.219737	-0.288177	-0.249031
0.124714	-0.104034	-0.299375	-0.043869	-0.166003	-0.001688	0.044163	0.078887	-0.927512	-0.792463	-0.257171	-0.325842	-0.493879	-0.37648	-0.342377	-0.447317
0.240558	0.514262	-0.085176	0.1256	-0.067877	0.202403	0.175989	0.389647	-0.961925	-0.765814	-0.300523	-0.409203	-0.396729	-0.243127	-0.296452	-0.253406
0.21156	0.297233	-0.118195	0.032812	-0.152982	-0.071873	0.023923	0.060091	-0.856189	-0.55483	-0.174974	-0.166411	-0.164369	0.058914	-0.070476	0.154981
0.287828	0.579919	0.032726	0.174919	-0.224822	-0.204263	-0.119912	-0.176855	-0.810148	-0.408873	-0.131555	-0.059761	-0.314466	-0.143048	-0.099186	0.043026
0.155573	-0.010654	-0.293175	-0.071312	-0.152982	-0.018112	0.01379	0.041268	-0.671778	-0.156472	0.054835	0.269761	-0.32096	-0.152555	-0.073064	0.018927
0.28037	0.402002	-0.144987	0.054504	-0.201063	-0.15358	-0.079448	-0.092432	-0.920641	-0.581978	-0.203178	-0.196422	-0.409733	-0.243127	-0.064582	-0.07047
0.26958	0.113136	-0.274591	-0.036563	-0.121284	0.001053	0.003746	0.070765	-0.88634	-0.504114	-0.193387	-0.121535	-0.105805	0.111011	0.101918	0.269116
0.119316	-0.050717	-0.424089	-0.20076	-0.15131	-0.06894	-0.036598	0.017087	-0.925372	-0.70213	-0.28069	-0.268286	-0.112299	0.101497	0.160481	0.191285
0.13011	-0.100975	-0.424089	-0.215044	-0.15762	-0.06493	-0.122106	-0.117751	-1.023873	-0.832736	-0.405642	-0.571749	-0.2668	-0.195519	0.043473	-0.140326
0.386927	0.718865	0.028178	0.142553	-0.281731	-0.370733	-0.290221	-0.535685	-0.994337	-0.74327	-0.375338	-0.495002	-0.114729	0.009565	0.113692	0.120434
0.093895	-0.089595	-0.399365	-0.216339	-0.141859	-0.10348	-0.167259	-0.127056	-1.11302	-1.10771	-0.536714	-0.725583	-0.012612	0.10953	0.228061	0.28759
0.294414	0.618308	-0.017236	0.068718	-0.31378	-0.427854	-0.334698	-0.522488	-0.726197	-0.176229	-0.016112	0.090092	-0.40323	-0.409603	-0.018119	-0.354434
0.270789	0.429383	-0.062608	0.036963	-0.148261	-0.13815	-0.1772	-0.170958	-1.110771	-1.056013	-0.504969	-0.713454	0.239153	0.418085	0.395757	0.563346
0.33418	0.668686	0.052782	0.145206	-0.068555	0.010417	-0.114538	0.000715	-1.026369	-0.821623	-0.380614	-0.43349	0.20034	0.370798	0.378124	0.569559
0.189313	0.147054	-0.182081	-0.061169	-0.226569	-0.373571	-0.32735	-0.416039	-0.620623	-0.020254	0.02067	0.153134	-0.005002	0.087652	0.201464	0.196472
0.458164	0.871838	0.185652	0.238148	-0.150954	-0.189457	-0.194834	-0.181574	-0.778939	-0.309136	-0.108838	-0.0781	0.161408	0.304297	0.257391	0.430863
0.139337	0.036954	-0.241751	-0.124445	-0.229329	-0.364761	-0.287491	-0.352499	-0.48517	0.212796	0.150111	0.418593	-0.253645	-0.248023	-0.009624	-0.191892
0.342665	0.506763	-0.027355	0.093456	-0.162761	-0.289779	-0.222387	-0.243898	-0.618716	-0.01173	0.01461	0.1531	-0.085676	0.073534	0.036961	0.123409
0.341269	0.382413	-0.037623	0.064662	-0.045035	-0.013504	-0.0844	0.055379	-0.648057	-0.141504	-0.026887	0.109855	0.092186	0.311076	0.180552	0.459382
0.44389	0.729701	0.147137	0.20411	-0.036128	0.01756	-0.041785	0.078887	-0.638248	-0.179123	-0.041165	0.065952	0.105285	0.339967	0.218843	0.550549
0.290389	0.101384	-0.203394	-0.013711	-0.082114	-0.06894	-0.09727	-0.075123	-0.654281	-0.177758	-0.056469	0.043175	-0.494189	-0.499668	-0.216528	-0.385487
0.543515	0.76271	0.130656	0.275694	0.096753	0.243661	0.117597	0.335145	-0.867923	-0.672489	-0.325068	-0.434714	0.187345	0.452638	0.268623	0.744737
0.394683	0.226988	-0.143605	0.02389	-0.124707	-0.227933	-0.168424	-0.286286	-0.40418	0.268448	0.098835	0.407617	-0.096652	0.141393	0.07936	0.432257
0.501372	0.532711	0.053576	0.183838	-0.09174	-0.206965	-0.130503	-0.203372	-0.537546	-0.029544	-0.044975	0.139935	-0.169619	-0.029285	0.019456	0.307356
0.490318	0.543025	0.074354	0.194048	0.092778	0.147106	0.112513	0.299518	-0.523587	-0.057548	-0.039598	0.172443	-0.424635	-0.32624	-0.111921	0.008653
0.52345	0.668292	0.197449	0.278468	-0.015507	-0.059931	-0.019353	0.042646	-0.93958	-0.950364	-0.511164	-0.620361	-0.298353	-0.134361	-0.033178	0.194975
0.424078	0.363359	0.059835	0.135793	-0.199642	-0.45221	-0.261681	-0.466759	-0.700771	-0.327734	-0.271258	-0.165268	-0.45943	-0.526566	-0.150094	-0.188984
0.563972	0.582265	0.124413	0.236123	-0.062751	-0.186233	-0.115234	-0.192378	-0.64258	-0.31333	-0.243227	-0.081276	-0.074736	0.030093	0.173092	0.553767
0.473657	0.41308	-0.002418	0.122541	-0.058773	-0.171467	-0.082395	-0.12051	-0.97185	-1.002929	-0.56029	-0.648735	-0.208505	-0.172211	0.043452	0.232316
0.499123	0.464027	0.068128	0.159797	-0.186944	-0.489323	-0.285697	-0.487057	-0.591793	-0.050522	-0.058873	0.185117	-0.203868	-0.16202	0.07936	0.25263
0.510066	0.620794	0.126239	0.200246	0.003446	-0.127387	-0.041643	0.020184	-0.777363	-0.501506	-0.299259	-0.205242	0.072513	0.173476	0.307057	0.708705
0.548295	0.83139	0.202942	0.279338	-0.135506	-0.463216	-0.257645	-0.377276	-0.826043	-0.623321	-0.388402	-0.318851	-0.212479	-0.17632	0.088792	0.181805
0.42893	0.429383	-0.008817	0.098048	-0.080344	-0.309632	-0.192244	-0.176877	-0.666789	-0.240424	-0.148358	0.03746	-0.327694	-0.437683	-0.012994	-0.114446
0.450676	0.51992	0.028178	0.119395	0.038957	-0.016617	0.01374	0.220305	-0.929742	-0.728032	-0.426306	-0.517177	-0.244972	-0.238409	0.069173	0.028615
0.560269	0.875407	0.204109	0.21255	0.027062	-0.076148	-0.03182	0.167055	-0.713018	-0.330848	-0.213057	-0.142127	0.166664	0.34234	0.384112	0.739216
0.488642	0.547068	-0.019542	0.052605	-0.068555	-0.264446	-0.124612	-0.05937	-1.000957	-0.885365	-0.486067	-0.673903	-0.024553	0.062278	0.283861	0.376832
0.439807	0.322002	-0.008817	0.089499	-0.041096	-0.274906	-0.137116	0.047853	-0.560469	0.026944	0.043189	0.16396	0.208454	0.361319	0.395925	0.684564
0.567906	0.825348	0.273412	0.262771	-0.080546	-0.285794	-0.149725	-0.044612	-0.793693	-0.47539	-0.239752	-0.34311	0.179722	0.29863	0.37524	0.63003
0.407146	0.211169	-0.070717	0.038082	-0.127611	-0.371032	-0.217359	-0.179006	-0.576033	-0.022265	0.067476	0.142438	-0.210107	-0.147647	0.081009	0.052946
0.518924	0.522493	0.086757	0.172715	-0.016325	-0.152788	-0.069352	0.118482	-0.478019	0.073437	0.10144	0.216558	-0.192745	-0.118908	0.071779	0.045438
0.454805	0.199266	-0.076923	0.054201	-0.143924	-0.355976	-0.165134	-0.083086	-0.493733	-0.072425	0.058647	0.16237	-0.028473	0.059139	0.19184	0.301908
0.550396	0.70169	0.226328	0.248495	-0.079803	-0.232086	-0.10741	0.015831	-0.561177	-0.124982	0.026457	0.07677	0.247442	0.496766	0.407551	0.757051
0.479154	0.275448	-0.025432	0.093676	-0.161661	-0.46708	-0.236202	-0.286286	-0.390236	0.105989	0.11045	0.246757	0.189789	0.46229	0.348319	0.714473
0.583968	0.57786	0.203696	0.262185	-0.069588	-0.267758	-0.074973	-0.004361	-0.675179	-0.447013	-0.182851	-0.231342	0.280401	0.697233	0.425416	0.953174
0.473657	0.077728	-0.110522	0.038592	-0.145711	-0.505329	-0.20633	-0.250448	-0.476857	-0.152844	-0.017333	0.012831	0.033075	0.29613	0.283253	0.538295
0.492077	0.348357	-0.025432	0.099484	-0.12257	-0.45759	-0.214378	-0.326137	-0.399211	-0.083909	0.000311	0.107344	0.225194	0.608487	0.422301	0.916376
0.356226	-0.160577	-0.294279	-0.111788	0.043794	-0.137247	0.026168	0.187934	-0.605221	-0.432958	-0.231353	-0.265645	0.002293	0.316313	0.244088	0.452183
0.425883	0.14013	-0.085492	0.053067	-0.008721	-0.201017	-0.059704	0.015831	-0.411157	-0.072425	-0.061122	0.022591	-0.013092	0.257623	0.262047	0.434815
0.398387	0.078919	-0.116787	0.037004	-0.037729	-0.269099	-0.120322	-0.04843	-0.169408	0.493869	0.29255	0.590998	0.066229	0.433311	0.374468	0.665242
0.471722	0.348357	0.097324	0.148848	-0.029777	-0.255731	-0.099984	-0.075123	-0.433227	0.042522	0.040792	0.099699	0.267888	0.66023	0.48136	0.928204
0.341569	-0.212252	-0.250553	-0.090036	-0.02183	-0.233601	-0.122636	-0.029676	-0.659055	-0.449329	-0.184174	-0.396829	0.212	0.525723	0.449004	0.806185
0.341569	0.077728	-0.159711	-0.05827	-0.008721	-0.140342	-0.094905	-0.002922	-0.749629	-0.675124	-0.250445	-0.416881	0.183194	0.554615	0.40159	0.763512
0.159272	-0.366115	-0.459696	-0.301117	-0.116157	-0.458607	-0.293002	-0.344815	-0.682564	-0.424922	-0.197067	-0.404841	0.119088	0.320714	0.348319	0.575021
0.284863	-0.098626	-0.233677	-0.117184	-0.104276	-0.413208	-0.298061	-0.292093	-0.747487	-0.517058	-0.224466	-0.435642	-0.098754	0.014849	0.204244	0.244948
0.301212	0.148767	-0.118195	-0.095611	-0.072646	-0.345844	-0.26269	-0.217411	-0.648057	-0.424922	-0.170462	-0.236353	0.122356	0.389734	0.363438	0.557515
0.373874	0.427068	0.048995	0.033788	0.025818	-0.242132	-0.139662	0.055379	-0.819142	-0.741003	-0.290562	-0.509066	0.201924	0.536977	0.449178	0.745013
0.268191	-0.133998	-0.323515	-0.198945	0.131033	0.026207	-0.00134	0.319692	-0.731682	-0.505724	-0.193387	-0.371804	0.201924	0.420474	0.455086	0.587704
0.319486	0.074802	-0.208868	-0.099922	0.12587	0.025089	-0.029058	0.244279	-0.629314	-0.42332	-0.142204	-0.206126	-0.035071	0.107402	0.27457	0.218602
0.454805	0.575392	0.08055	0.091871	0.046804	-0.196804	-0.13747	-0.01231	-0.652115	-0.448066	-0.14598	-0.240731	0.022131	0.199642	0.289208	0.206348
0.411087	0.168991	-0.114227	0.021207	-0.086079	-0.523472	-0.293634	-0.359802	-0.707737	-0.632899	-0.23247	-0.443604	0.141226	0.272451	0.386853	0.350996
0.528964	0.582265	0.168243	0.243599	0.078351	-0.217311	-0.140192	0.078887	-0.589018	-0.473346	-0.199608	-0.316646	0.44365	0.833127	0.648699	1.057907
0.387372	-0.056917	-0.162401	0.012467	0.06768	-0.206965	-0.092568	0.123285	-0.584242	-0.446173	-0.204385	-0.276575	0.410465	0.764777	0.612739	1.008436
0.658123	0.83139	0.285439	0.372105	-0.030328	-0.373316	-0.186646	-0.227991	-0.342359	0.014461	0.034858	0.146069	0.301072	0.669972	0.56498	0.934712
0.449784	0.067547	-0.140219	0.039638	0.207682	0.076155	0.086791	0.406384	-0.640264	-0.579231	-0.302557	-0.425895	-0.194484	0.038191	0.213003	0.224041
0.529023	0.404498	0.05292	0.202696	0.076446	-0.173095	-0.063008	0.047653	-0.231057	0.124023	0.080289	0.306121	-0.20786	0.042372	0.182786	0.199012
0.464401	0.069646	-0.03901	0.125201	0.093618	-0.088223	0.015538	0.158288	-0.353871	-0.079517	-0.018861	0.088992	-0.159297	0.091727	0.227492	0.303184
0.588194	0.711433	0.212037	0.300735	0.222168	0.193251	0.162977	0.527495	-0.601024	-0.512126	-0.290167	-0.380218	-0.104037	0.28236	0.266176	0.461823
0.326616	-0.024455	-0.225255	-0.051865	0.153212	0.035675	0.028092	0.296275	-0.734609	-0.886373	-0.493476	-0.760334	0.121406	0.488526	0.429851	0.823237
0.582469	0.770475	0.153637	0.259741	0.002089	-0.210502	-0.13189	-0.146437	-0.53037	-0.351955	-0.203294	-0.192629	0.132545	0.576746	0.472075	0.897663
0.37271	-0.046736	-0.248858	-0.055611	0.114804	0.028211	0.02066	0.26914	-0.778568	-0.885564	-0.515577	-0.652352	0.143549	0.571365	0.496139	0.947037
0.389171	0.350105	-0.046101	0.090767	-0.042318	-0.259027	-0.191763	-0.106567	-0.722108	-0.659176	-0.373694	-0.393021	0.070598	0.477424	0.427857	0.781642
0.220992	-0.283197	-0.397532	-0.141097	-0.172616	-0.489419	-0.330196	-0.452273	-0.319282	0.198108	0.087223	0.376014	0.169993	0.585254	0.526156	1.039352
0.392736	0.423286	-0.09362	0.055978	0.02667	-0.186233	-0.085162	0.077535	-0.731077	-0.6729	-0.413069	-0.452564	0.094604	0.500827	0.443032	0.757508
0.193837	-0.283577	-0.439481	-0.173448	-0.10082	-0.479251	-0.308884	-0.267449	-0.707737	-0.528741	-0.315924	-0.301445	0.187345	0.593034	0.508471	0.867337
0.315935	0.370508	-0.174028	-0.019224	0.023037	-0.245839	-0.165134	0.09988	-0.598721	-0.345616	-0.241195	-0.162719	-0.227681	-0.018181	0.26537	0.225872
0.221143	-0.004931	-0.317996	-0.144496	0.095545	-0.091117	-0.054223	0.26532	-0.777363	-0.648111	-0.333193	-0.47838	-0.286977	-0.123875	0.164586	0.008712
0.324935	0.411217	-0.052115	0.018164	0.059987	-0.145945	-0.12714	0.128616	-0.457315	0.0655	0.031546	0.100602	0.114298	0.372794	0.49073	0.660303
0.157519	-0.17075	-0.338363	-0.217667	-0.047719	-0.372758	-0.259982	-0.08877	-0.582931	-0.119879	-0.017202	-0.068314	-0.240834	-0.075722	0.206391	0.082058
0.388797	0.618308	0.018128	0.039694	-0.003065	-0.253206	-0.234838	0.002586	-1.003345	-1.120668	-0.48661	-0.922824	0.277833	0.573839	0.550216	0.793987
0.270335	-0.067107	-0.303833	-0.143121	-0.013621	-0.311155	-0.237486	0.009992	-0.885981	-0.819739	-0.339171	-0.727258	0.120855	0.3441	0.475898	0.63003
0.259386	-0.067107	-0.394306	-0.229319	-0.012369	-0.302108	-0.182357	0.073912	-0.761301	-0.570246	-0.153677	-0.446313	-0.063747	0.222485	0.375196	0.425122
0.237461	-0.263157	-0.406771	-0.237979	0.012617	-0.211193	-0.117073	0.137866	-0.728868	-0.476725	-0.087252	-0.426229	-0.293583	-0.191597	0.1177	-0.110161
0.350727	0.151657	-0.215903	-0.066963	-0.061109	-0.360457	-0.245233	-0.136367	-0.419383	0.112469	0.22833	0.184436	0.041938	0.335654	0.357049	0.520593
0.303158	-0.067107	-0.197144	-0.077003	0.028237	-0.251487	-0.149957	0.117494	-0.512602	-0.16947	0.139802	0.078275	0.041938	0.316313	0.38369	0.508374
0.484649	0.441662	0.057797	0.147322	0.100728	-0.09612	-0.031653	0.290151	-0.675656	-0.412005	-0.033138	-0.299299	-0.046072	0.170236	0.29516	0.316208
0.306647	-0.221738	-0.298991	-0.091805	0.075633	-0.127272	-0.049282	0.235891	-0.486797	-0.035263	0.189905	0.131766	-0.063624	0.155955	0.268027	0.284735
0.317682	-0.108799	-0.286439	-0.088722	0.003198	-0.313364	-0.089552	0.045061	-0.535426	-0.113529	0.09169	-0.070514	0.083793	0.379607	0.404385	0.641798
0.359791	-0.139367	-0.278632	-0.130482	-0.004747	-0.322294	-0.094607	-0.000386	-0.839989	-0.818687	-0.30998	-0.698742	-0.004326	0.306631	0.309216	0.48916
0.40198	0.265275	-0.036134	0.006733	-0.065601	-0.48661	-0.22826	-0.239245	-0.549354	-0.247736	-0.018922	-0.090254	-0.235004	0.039782	0.205579	0.211033
0.394683	0.128511	-0.083664	-0.032226	0.088801	-0.183843	-0.046854	0.162083	-0.549354	-0.340839	-0.051876	-0.227532	0.050781	0.496766	0.419116	0.726751
0.352515	-0.151434	-0.2739	-0.174761	0.08358	-0.238531	-0.041785	0.125753	-0.675179	-0.500514	-0.161355	-0.458378	-0.177508	0.208684	0.291921	0.424271
0.470047	0.098066	-0.135601	-0.061055	-0.026994	-0.438193	-0.172544	-0.099163	-0.464973	-0.044389	0.071104	0.024557	-0.210467	0.126655	0.256063	0.309207
0.516019	0.32619	0.001522	0.047144	-0.004747	-0.338544	-0.071955	0.026418	-0.652115	-0.450797	-0.136063	-0.350596	0.037553	0.37425	0.460592	0.647435
0.424078	0.056082	-0.09621	0.003886	0.222412	0.074172	0.175791	0.586199	-0.793624	-0.818687	-0.408144	-0.81106	-0.321878	-0.138132	0.205579	0.062199
0.451646	0.148767	0.001522	0.084811	0.057256	-0.256669	-0.051739	0.09988	-0.619527	-0.42332	-0.184888	-0.42498	-0.101249	0.180256	0.359125	0.452183
0.510513	0.368662	0.107701	0.158752	0.149646	-0.057942	0.092192	0.328327	-0.449001	-0.113529	-0.035	-0.122348	0.055125	0.387973	0.463783	0.599446
0.403891	0.3141	0.072344	0.112319	0.176084	-0.061267	0.071984	0.327575	-0.57509	-0.514584	-0.194891	-0.353836	-0.133818	0.233145	0.288612	0.284735
0.567492	0.618308	0.1912	0.2269	0.074383	-0.192935	-0.066898	0.053255	-0.447087	-0.102432	0.046133	-0.110872	-0.046072	0.368793	0.363016	0.502831
0.350727	-0.027644	-0.189168	-0.050977	0.000418	-0.366233	-0.13747	-0.084497	-0.474852	-0.327734	-0.051876	-0.2179	-0.149085	0.160605	0.318501	0.333632
0.473657	0.273685	-0.025432	0.090679	0.022686	-0.271978	-0.124979	0.014463	-0.481802	-0.327734	-0.084811	-0.250186	-0.11194	0.199642	0.365766	0.417384
0.468158	0.316058	0.047314	0.113878	-0.036576	-0.386852	-0.207972	-0.148651	-0.430085	-0.057548	0.071104	-0.082348	-0.229759	0.04932	0.307057	0.274487
0.482945	0.423286	0.149382	0.214364	-0.023476	-0.317684	-0.185399	-0.158045	-0.38327	-0.01811	0.109584	0.013786	-0.352011	-0.176669	0.206391	0.004237
0.350727	-0.099711	-0.195433	-0.036563	0.087256	-0.171467	-0.024149	0.178519	-0.371262	-0.124982	0.027256	-0.072715	-0.432973	-0.211013	0.132161	-0.06918
0.492077	0.263561	-0.004746	0.128425	-0.044545	-0.419077	-0.132409	-0.056397	-0.204239	0.281622	0.272061	0.257602	-0.632874	-0.546012	-0.003218	-0.509506
0.324923	-0.355934	-0.324133	-0.143542	0.017006	-0.255731	-0.051925	0.050683	-0.352277	-0.042759	0.055751	-0.041394	-0.168861	0.165629	0.377718	0.350996
0.429596	0.066223	-0.102487	0.015432	0.158755	0.056392	0.150527	0.502336	-0.352277	-0.029544	0.122066	-0.030531	-0.323766	-0.027694	0.291921	0.201494
0.367054	-0.24277	-0.225255	-0.028124	0.21042	0.150536	0.15819	0.511066	-0.47413	-0.391808	-0.131328	-0.393021	-0.227681	0.039719	0.342361	0.238043
0.407508	-0.077304	-0.100782	0.016825	-0.103451	-0.444781	-0.218723	-0.326137	-0.373267	-0.09711	0.017225	-0.08357	-0.480953	-0.277718	0.146628	-0.212335
0.372585	-0.139367	-0.127629	0.025536	-0.058323	-0.385508	-0.175762	-0.188064	-0.485952	-0.366051	-0.148693	-0.271756	-0.07737	0.180084	0.439277	0.523997
0.48105	0.278432	0.05292	0.138697	0.156	0.012299	0.021323	0.307944	-0.340284	-0.06923	0.078871	0.065952	0.028517	0.306959	0.498881	0.658204
0.530869	0.182275	0.082584	0.208459	0.109617	-0.132961	0.006085	0.224391	-0.366267	-0.192283	0.000311	0.003005	0.070543	0.414619	0.585501	0.725505
0.589938	0.623105	0.247802	0.310551	-0.088469	-0.58372	-0.313972	-0.40495	-0.272254	0.171857	0.149865	0.194683	0.079465	0.408587	0.606736	0.769352
0.464401	0.069646	-0.026363	0.084795	0.017006	-0.339827	-0.22094	-0.159734	-0.504775	-0.433867	-0.127114	-0.2179	-0.151625	0.059139	0.430576	0.264968
0.5272	0.392643	0.182845	0.239233	0.13234	-0.130837	-0.054343	0.15379	-0.415354	-0.337951	-0.070017	-0.180038	-0.199961	0.010692	0.391829	0.186369
0.375987	-0.075858	-0.105463	0.029578	0.066109	-0.229499	-0.102339	-0.002922	-0.586525	-0.592825	-0.285887	-0.524731	-0.052799	0.209324	0.45733	0.385536
0.41267	0.248656	0.033945	0.090512	0.03814	-0.288221	-0.155424	-0.095436	-0.345288	-0.072425	0.027256	-0.038283	-0.055437	0.228906	0.480793	0.499164
0.409265	0.236092	0.0115	0.064579	0.067284	-0.220491	-0.127715	-0.059351	-0.317369	-0.113529	-0.017333	-0.122348	0.154695	0.497847	0.597556	0.817723
0.458846	0.46927	0.159542	0.177959	0.029	-0.328027	-0.178031	-0.131468	-0.150166	0.318415	0.220734	0.323048	0.013148	0.258109	0.498881	0.548781
0.320329	0.008253	-0.037406	-0.008715	0.097619	-0.17309	-0.094905	0.078887	-0.225183	0.104023	0.166901	0.215656	-0.434646	-0.322236	0.147875	-0.217306
0.419894	0.395624	0.140549	0.119502	0.195676	0.019658	0.033929	0.325737	-0.525754	-0.566382	-0.192477	-0.409203	-0.248274	0.034738	0.302377	0.198707
0.351325	-0.033622	-0.056456	-0.011962	0.066682	-0.169909	-0.128238	-0.043786	-0.560797	-0.606067	-0.247091	-0.504955	0.196821	0.625493	0.657472	0.854808
0.347234	0.092244	-0.015269	0.02125	0.052719	-0.196799	-0.151594	-0.083727	-0.295249	-0.123553	-0.031463	-0.072715	0.039212	0.463874	0.57012	0.743224
0.387962	0.039373	0.010202	0.034511	0.064821	-0.236689	-0.141351	0.000153	-0.262149	-0.110325	0.001688	-0.018583	-0.128983	0.199051	0.480004	0.503906
0.554424	0.554929	0.230336	0.234523	0.07903	-0.158163	-0.08351	0.06325	-0.136362	0.175848	0.163889	0.311138	-0.276512	-0.025117	0.357138	0.27818
0.423109	0.029008	-0.081901	0.038928	0.134741	-0.056924	-0.027754	0.210774	-0.110105	0.244086	0.192547	0.310439	-0.303376	-0.001278	0.365636	0.240579
0.528686	0.427929	0.123247	0.163052	0.028482	-0.173095	-0.098909	-0.001716	-0.022177	0.433969	0.27024	0.429298	-0.107106	0.218739	0.521598	0.558579
0.341628	-0.262372	-0.278366	-0.106976	-0.076523	-0.44167	-0.26361	-0.323531	-0.009915	0.380972	0.24304	0.47225	-0.142402	0.184693	0.476483	0.49141
0.423109	0.133857	-0.061355	0.047758	-0.110732	-0.473506	-0.291341	-0.378572	-0.469536	-0.391341	-0.234333	-0.382082	0.056487	0.532899	0.635492	0.908908
0.403163	0.059357	-0.083371	0.077338	0.019394	-0.291359	-0.182373	-0.165502	-0.254464	-0.013444	0.026391	0.096462	0.103439	0.54214	0.638871	0.835672
0.439891	0.426566	0.049958	0.121196	0.074989	-0.260325	-0.124616	-0.020838	-0.469536	-0.377972	-0.234333	-0.349322	-0.164243	0.165621	0.441045	0.48673
0.303584	-0.169455	-0.228698	-0.127438	0.179141	-0.035518	0.005286	0.248846	-0.38692	-0.148977	-0.057543	-0.178548	0.074653	0.44389	0.615208	0.965362
0.469464	0.309199	-0.058003	-0.061055	0.02644	-0.389733	-0.212249	-0.153961	-0.471688	-0.24404	-0.102608	-0.291967	0.24572	0.689433	0.726449	1.156893
0.334543	-0.2938	-0.347996	-0.330753	0.157863	-0.08323	-0.002131	0.30574	-0.311455	0.094461	0.058543	0.098376	0.44204	0.939794	0.868112	1.392159
0.507922	0.205301	-0.137103	-0.148815	0.000193	-0.39127	-0.214378	-0.142617	-0.476391	-0.217485	-0.097703	-0.196422	0.003807	0.302002	0.573434	0.720074
0.548818	0.234707	-0.032685	-0.030801	0.027471	-0.304459	-0.172105	-0.110337	-0.789925	-0.765673	-0.389355	-0.66836	-0.065063	0.185112	0.495541	0.628193
0.669511	0.477969	0.094409	0.042825	-0.001805	-0.395611	-0.217376	-0.153961	-0.396462	-0.055987	-0.042308	-0.038283	0.000834	0.287408	0.537165	0.633371
0.602636	0.182275	-0.032685	-0.076902	-0.031073	-0.379484	-0.24304	-0.201534	-0.829498	-0.898322	-0.509974	-0.867046	-0.274951	-0.106345	0.352198	0.257149
0.67684	0.351671	0.022918	0.045832	-0.093633	-0.523472	-0.341591	-0.421389	-0.53037	-0.24404	-0.180163	-0.302738	0.192047	0.522619	0.693367	0.952988
0.552043	-0.035549	-0.156124	-0.11876	-0.007029	-0.375585	-0.261615	-0.206022	-0.38692	-0.012319	-0.057073	-0.084943	-0.049838	0.243483	0.501581	0.573517
0.583379	0.173348	-0.035871	-0.016404	-0.179726	-0.672786	-0.481233	-0.636774	-0.598433	-0.40512	-0.295616	-0.47242	0.10927	0.478686	0.624012	0.971205
0.601887	0.224501	0.043596	0.039998	0.04547	-0.235392	-0.219542	-0.090312	-0.622297	-0.47185	-0.361193	-0.476336	0.063654	0.389776	0.563273	0.846303
0.721364	0.445503	0.144034	0.191055	0.074903	-0.204263	-0.153488	0.076611	-0.427505	-0.119679	-0.161377	-0.101041	-0.134499	0.144001	0.380218	0.483341
0.626066	0.131204	-0.067734	0.008108	0.104344	-0.126947	-0.146295	0.113093	-0.285278	0.235379	0.016371	0.158454	-0.043113	0.277121	0.478988	0.643204
0.663172	0.351671	0.025987	0.111055	-0.009296	-0.311305	-0.27326	-0.201323	-0.289979	0.205794	0.004504	0.192392	0.022836	0.389776	0.475337	0.770766
0.499765	-0.12917	-0.279538	-0.097436	0.128722	-0.006363	-0.049091	0.282415	-0.225918	0.332511	0.016775	0.157094	-0.367027	-0.13404	0.271774	0.177663
0.564886	0.214287	-0.094643	0.031278	0.004198	-0.294108	-0.225567	-0.036083	-0.256777	0.247497	-0.017421	0.095278	-0.232587	0.090213	0.358113	0.432932
0.396579	-0.191946	-0.398682	-0.212548	0.065814	-0.058394	-0.1101	0.197781	-0.263896	0.124023	-0.106373	0.073391	0.106107	0.592266	0.63204	1.063158
0.479827	0.057357	-0.254093	-0.056924	0.00515	-0.221818	-0.20604	0.042231	-0.275761	0.137419	-0.084438	0.043175	0.012799	0.404855	0.559738	0.803549
0.574554	0.370508	-0.089721	0.057421	-0.076523	-0.362009	-0.331306	-0.165502	-0.187976	0.425122	0.071208	0.353913	0.334435	0.815098	0.804194	1.293747
0.584125	0.423286	-0.031062	0.096533	-0.091457	-0.433775	-0.385413	-0.206986	-0.344483	0.070293	-0.067602	0.041909	-0.142758	0.189195	0.460683	0.533549
0.410344	-0.191121	-0.360648	-0.09276	-0.02902	-0.282445	-0.309743	-0.042092	-0.280556	0.122627	-0.012883	0.161616	0.126455	0.527811	0.64424	0.951871
0.56563	0.329669	-0.14344	0.064662	-0.018952	-0.233601	-0.317915	0.000153	-0.554045	-0.445141	-0.334075	-0.420029	0.265486	0.734005	0.732145	1.119698
0.415933	-0.149573	-0.465494	-0.166106	-0.114501	-0.429348	-0.367015	-0.142617	-0.615202	-0.41812	-0.295324	-0.391053	0.036312	0.409493	0.590994	0.775025
0.54715	0.204065	-0.249077	0.008219	-0.178659	-0.635036	-0.516716	-0.386071	-0.521187	-0.296797	-0.217928	-0.296609	-0.337038	-0.153852	0.244353	0.058367
0.58242	0.401052	-0.059618	0.090679	-0.114501	-0.420529	-0.422099	-0.197522	-0.727518	-0.792933	-0.449376	-0.75976	-0.274951	-0.018466	0.340096	0.198707
0.612121	0.265275	-0.105463	0.071831	-0.140576	-0.429348	-0.444511	-0.252373	-0.657832	-0.633599	-0.416171	-0.671633	-0.114106	0.203483	0.413109	0.478901
0.673383	0.676348	0.153214	0.266523	-0.198751	-0.579915	-0.547308	-0.461759	-0.289979	0.071182	0.01593	-0.003515	-0.439746	-0.31455	0.136491	-0.148162
0.535133	0.19602	-0.140638	0.041373	-0.104512	-0.394224	-0.473191	-0.292488	-0.358734	-0.119679	-0.072726	-0.112104	0.202755	0.65592	0.593679	0.928204
0.689794	0.734055	0.150406	0.252325	0.04764	-0.10348	-0.285129	0.118721	-0.696468	-0.769954	-0.399508	-0.741287	-0.007561	0.321199	0.446033	0.638376
0.635744	0.414762	-0.069172	0.109641	0.057792	-0.039338	-0.205014	0.18999	-0.439132	-0.269335	-0.161903	-0.238555	0.107819	0.572485	0.559738	0.871382
0.560777	0.184731	-0.246471	-0.003663	0.061748	-0.024159	-0.23702	0.145321	-0.627914	-0.593584	-0.327808	-0.569343	0.036456	0.44399	0.481451	0.723316
0.566431	0.037947	-0.3062	-0.045589	0.059808	-0.004739	-0.190578	0.215156	-0.526473	-0.485574	-0.278184	-0.472319	-0.294095	-0.01957	0.24942	0.260787
0.790302	0.606584	0.085002	0.2466	-0.129282	-0.388274	-0.408647	-0.240066	-0.125849	0.306384	0.151168	0.261732	-0.386397	-0.086862	0.183794	0.127103
0.700342	0.374953	0.038768	0.185301	-0.09099	-0.326281	-0.353251	-0.083061	-0.235574	0.058594	0.028529	0.183673	-0.276046	0.012666	0.292361	0.240579
0.848676	0.839142	0.169505	0.30781	0.082066	-0.034532	-0.165855	0.288548	-0.598007	-0.621782	-0.35529	-0.57224	-0.329464	-0.063254	0.257677	0.235431
0.701905	0.207213	-0.172565	0.108055	-0.070666	-0.389331	-0.36029	-0.099972	-0.347012	-0.187782	-0.106046	-0.067909	-0.153562	0.276026	0.401742	0.609953
0.871298	0.828861	0.148679	0.366081	-0.120316	-0.425748	-0.424172	-0.233117	-0.635061	-0.741389	-0.443655	-0.5998	-0.111216	0.330154	0.461659	0.597294
0.710058	0.322086	-0.142004	0.108196	0.063862	-0.08223	-0.19573	0.307831	-0.507809	-0.526989	-0.322187	-0.377712	-0.205346	0.119989	0.366517	0.483341
0.745647	0.510476	0.002258	0.19976	-0.046319	-0.290083	-0.311944	0.038016	-0.342052	-0.120563	-0.112603	0.041909	0.084013	0.557631	0.583119	0.99492
0.743945	0.553331	-0.024722	0.206879	-0.21139	-0.664536	-0.570836	-0.49427	-0.384706	-0.147074	-0.073087	0.092449	-0.248864	0.149695	0.351988	0.441301
0.725313	0.522389	-0.06434	0.193855	-0.095492	-0.378119	-0.416154	-0.121972	-0.138366	0.341077	0.192547	0.515277	-0.186407	0.16946	0.430114	0.588317
0.753458	0.584198	-0.026363	0.262185	-0.074359	-0.354611	-0.438601	-0.085801	-0.306616	-0.040139	0.036759	0.118217	-0.399147	-0.198721	0.263425	0.116115
0.663889	0.563628	-0.099145	0.147322	-0.014915	-0.19213	-0.345557	0.097813	-0.636499	-0.753209	-0.295068	-0.395145	-0.349164	0.008601	0.316833	0.319902
0.621163	0.520757	-0.09283	0.174919	-0.091457	-0.376819	-0.455903	-0.160333	-0.62671	-0.712509	-0.273493	-0.456601	-0.095328	0.355461	0.481451	0.680804
0.658265	0.458948	-0.149781	0.20129	-0.078395	-0.314935	-0.42835	-0.07838	-0.535365	-0.512126	-0.173511	-0.322492	0.007562	0.597038	0.557182	0.890936
0.706696	0.913447	0.027614	0.322495	0.083071	0.063796	-0.186646	0.403807	-0.138366	0.177525	0.1653	0.394436	0.031379	0.607145	0.592821	0.93935
0.589023	0.332417	-0.260449	0.163406	0.028482	-0.028636	-0.229733	0.282415	-0.287643	-0.013444	0.081564	0.199772	0.051619	0.716349	0.605027	0.96438
0.719676	0.913447	0.029272	0.349072	-0.02512	-0.104569	-0.283076	0.086241	-0.370472	-0.337116	-0.095401	-0.060745	-0.095328	0.512957	0.475337	0.753341
0.590581	0.363359	-0.298655	0.116387	0.00515	-0.025585	-0.265635	0.141984	-0.268658	-0.040139	0.031857	0.155577	0.200788	1.046061	0.731575	1.406403
0.702751	0.764947	-0.088271	0.324198	0.054762	0.04151	-0.174248	0.320689	-0.318464	-0.20185	-0.106373	-0.062916	0.009361	0.766278	0.574489	1.081275
0.708396	0.616889	-0.107398	0.325635	0.103357	0.154175	-0.109185	0.410388	-0.417763	-0.404723	-0.267448	-0.220854	0.142968	0.971045	0.686152	1.368728
0.721364	0.926155	0.038768	0.410911	0.120601	0.170781	-0.07618	0.495394	-0.387282	-0.2965	-0.178379	-0.009297	-0.090221	0.646762	0.53529	1.043449
0.529492	0.11169	-0.338046	0.140973	0.077019	0.145042	-0.116485	0.338301	-0.204501	0.110612	0.004504	0.252164	-0.532495	-0.086862	0.226735	0.273446
0.712325	0.742224	-0.029508	0.390305	-0.099978	-0.217997	-0.351884	-0.14343	-0.457891	-0.364618	-0.27319	-0.20548	-0.172867	0.388765	0.510794	0.899083
0.543209	0.142556	-0.247739	0.156004	-0.007962	-0.065845	-0.194751	0.201238	-0.358734	-0.18904	-0.178982	-0.003515	-0.372153	0.144001	0.331344	0.474953
0.623301	0.382413	-0.163919	0.21301	0.016345	-0.006363	-0.174248	0.193281	-0.419926	-0.393396	-0.296312	-0.188018	-0.212884	0.277121	0.439934	0.833745
0.604771	0.350105	-0.132311	0.221757	-0.107605	-0.354611	-0.380297	-0.199469	-0.608111	-0.685841	-0.477128	-0.515819	-0.326594	0.067712	0.386314	0.668283
0.69018	0.686546	0.024096	0.310551	-0.187972	-0.58372	-0.507725	-0.407125	-0.311455	-0.111822	-0.142164	0.056045	-0.318337	0.081871	0.400909	0.618075
0.562286	0.273685	-0.156132	0.160337	-0.230965	-0.653404	-0.574729	-0.532912	-0.553781	-0.502707	-0.363721	-0.393047	-0.348248	-0.106345	0.326717	0.319902
0.640003	0.567728	-0.063051	0.225839	-0.165649	-0.498075	-0.458754	-0.365301	-0.387281	-0.249387	-0.21574	-0.08904	-0.037476	0.316313	0.576172	0.762663
0.604509	0.434577	-0.120456	0.136596	-0.102442	-0.4689	-0.393646	-0.139264	-0.40833	-0.327734	-0.270161	-0.174086	-0.343171	-0.037942	0.348625	0.261493
0.468158	-0.082385	-0.316286	-0.042437	-0.231591	-0.73921	-0.509677	-0.449881	-0.595988	-0.676282	-0.469027	-0.607945	-0.072699	0.189952	0.567397	0.682988
0.519561	0.195184	-0.23186	0.016596	-0.12257	-0.51337	-0.395079	-0.14437	-0.586898	-0.546012	-0.371791	-0.524167	-0.006486	0.349583	0.561829	0.781642
0.422031	-0.034392	-0.332163	-0.081423	-0.093535	-0.520575	-0.384996	-0.071332	-0.481802	-0.3991	-0.283843	-0.390565	-0.129341	0.174661	0.472579	0.562791
0.352522	-0.042417	-0.246099	-0.07559	-0.232579	-0.73921	-0.516843	-0.440604	-0.334615	-0.119879	-0.136063	-0.182432	-0.44133	-0.272369	0.199584	0.037631
0.252103	-0.23844	-0.383511	-0.193212	-0.126569	-0.542212	-0.395079	-0.172263	-0.526461	-0.505724	-0.300523	-0.556343	-0.384079	-0.224062	0.147532	0.123409
0.305001	0.265275	-0.334989	-0.120071	-0.160621	-0.560039	-0.400124	-0.222857	-0.693808	-1.070348	-0.463195	-0.7728	-0.081151	0.29863	0.092178	0.573517
0.092264	-0.046736	-0.498551	-0.355873	-0.080471	-0.389453	-0.285176	-0.005824	-0.455959	-0.825958	-0.27186	-0.431908	-0.037263	0.386127	0.019188	0.700672
0.204766	0.41308	-0.281771	-0.173228	-0.227593	-0.699447	-0.462154	-0.37334	-0.397206	-0.746341	-0.244439	-0.35911	-0.129341	0.264473	-0.117728	0.658204
0.079257	-0.138663	-0.494375	-0.296265	-0.179629	-0.651358	-0.382777	-0.204445	-0.635607	-1.110595	-0.518107	-0.842604	-0.019701	0.401424	0.001389	0.896412
0.093468	0.164128	-0.270858	-0.193396	-0.287697	-0.851574	-0.512633	-0.500664	-0.263445	-0.445993	-0.168864	-0.234101	0.167987	0.726102	0.109207	1.205838
-0.025732	-0.345305	-0.527041	-0.349261	-0.168722	-0.653803	-0.361061	-0.189518	-0.267176	-0.413874	-0.210982	-0.266118	-0.008857	0.427869	-0.025909	0.944662
0.050235	0.110718	-0.350722	-0.174761	-0.176776	-0.697314	-0.413967	-0.290453	-0.185054	-0.204386	-0.190234	-0.182201	0.25649	0.754906	0.159445	1.362533
-0.018699	0.069646	-0.322728	-0.126131	-0.074359	-0.392869	-0.241294	-0.029676	-0.380272	-0.624743	-0.364712	-0.49416	0.145822	0.589234	0.03264	1.231017
-0.189304	0.060607	-0.274433	-0.071831	-0.115687	-0.473262	-0.327148	-0.193978	-0.457581	-0.766984	-0.418055	-0.590239	0.035175	0.477424	-0.073719	1.099327
-0.231801	-0.002553	-0.230094	-0.04122	0.032525	-0.191165	-0.17131	0.086957	-0.738904	-1.367771	-0.798996	-1.208548	-0.062105	0.355705	-0.188241	0.980155
-0.249607	0.323129	-0.137103	0.065935	-0.01995	-0.278506	-0.223819	-0.01095	-0.474116	-0.805568	-0.510579	-0.746898	-0.571148	-0.417824	-0.575963	0.146282
-0.446112	-0.033622	-0.321393	-0.071831	-0.224369	-0.661867	-0.483434	-0.639253	-0.59394	-1.15968	-0.679671	-0.961542	-0.127818	0.301431	-0.286602	0.962441
-0.436447	0.144794	-0.203355	0.037004	-0.104512	-0.483479	-0.33944	-0.273381	-0.596604	-1.120883	-0.717556	-1.057583	-0.303213	0.006018	-0.498031	0.580287
-0.570457	0.091752	-0.231557	-0.001973	-0.088395	-0.485015	-0.351728	-0.273381	-0.633789	-1.198954	-0.712237	-1.01276	-0.381453	-0.176669	-0.537706	0.390993
-0.395727	0.808275	0.115962	0.295866	-0.100481	-0.414744	-0.372115	-0.3296	-0.710642	-1.31554	-0.782876	-1.153242	-0.057028	0.159813	-0.339093	0.86603
-0.558236	0.037947	-0.261372	0.042825	-0.189779	-0.604505	-0.434321	-0.445921	-0.610021	-1.211627	-0.755954	-1.030204	-0.057028	0.247016	-0.339093	0.785859
-0.396431	0.717089	0.116027	0.310591	-0.295733	-0.794405	-0.578558	-0.749699	-0.232172	-0.268386	-0.251127	-0.223694	-0.234256	-0.051853	-0.436705	0.566202
-0.566463	0.025612	-0.250553	0.035391	-0.162608	-0.486614	-0.428308	-0.36181	-0.637888	-1.173008	-0.707928	-0.944657	-0.675549	-0.694342	-0.71939	-0.238895
-0.46012	0.370508	-0.09362	0.171002	-0.288597	-0.788397	-0.609816	-0.684279	-0.553781	-0.885365	-0.582772	-0.742478	-0.395259	-0.314611	-0.50227	0.136898
-0.534328	-0.036563	-0.153483	0.082643	-0.244562	-0.588816	-0.53701	-0.466805	-0.237346	-0.189042	-0.219141	-0.130035	-0.223205	-0.032759	-0.331792	0.464521
-0.25047	0.744839	0.192922	0.398342	-0.144647	-0.401799	-0.37492	-0.106208	-0.511764	-0.833509	-0.55108	-0.679436	-0.207977	-0.008616	-0.294071	0.439834
-0.410985	-0.088461	-0.269275	-0.015082	-0.31446	-0.752189	-0.596658	-0.593196	-0.546768	-0.779995	-0.506954	-0.630107	-0.634395	-0.51105	-0.549588	-0.292025
-0.181064	0.504637	0.012075	0.223495	-0.104479	-0.343784	-0.377728	0.01823	-0.76877	-1.316639	-0.853195	-1.057583	-0.308677	-0.023028	-0.223252	0.249021
-0.170738	-0.004931	-0.247228	0.080486	-0.219781	-0.581241	-0.503461	-0.303248	-0.574842	-0.792463	-0.587808	-0.654131	-0.035071	0.448356	0.04802	0.785859
-0.052358	0.150303	-0.115052	0.193855	-0.071301	-0.191165	-0.311053	0.078887	-0.528015	-0.674172	-0.544485	-0.435642	-0.280375	0.10747	-0.034283	0.357465
0.128472	0.368662	0.003393	0.300212	-0.200093	-0.47797	-0.449608	-0.171011	-0.238116	-0.057548	-0.286348	0.003005	-0.491022	-0.048942	-0.123907	0.139762
0.131895	0.066223	-0.231557	0.154701	-0.030114	-0.101792	-0.221642	0.231267	-0.275761	-0.122339	-0.296312	0.011727	-0.289922	0.302002	0.043452	0.512854
0.288387	0.244905	-0.110253	0.2466	-0.172405	-0.4003	-0.402757	-0.144468	-0.47926	-0.699155	-0.597577	-0.412865	-0.189593	0.41471	0.175576	0.664993
0.288387	-0.036563	-0.261749	0.157614	-0.121151	-0.331078	-0.347585	-0.007583	-0.33273	-0.324639	-0.43338	-0.170742	-0.418227	0.144001	0.056449	0.306024
0.433261	0.33426	-0.105463	0.285983	-0.039564	-0.122403	-0.191763	0.220303	-0.391829	-0.472644	-0.532059	-0.254725	-0.198084	0.532899	0.338474	0.851355
0.378113	0.056082	-0.208303	0.192522	-0.137419	-0.338485	-0.36496	-0.070464	-0.427002	-0.55483	-0.587258	-0.219124	0.05927	1.000798	0.540511	1.336772
0.435112	0.304008	-0.091241	0.2466	-0.125216	-0.232086	-0.377217	-0.125504	-0.572715	-0.753229	-0.728705	-0.512142	0.305831	1.287455	0.777677	1.722166
0.299411	-0.264671	-0.399859	0.029578	-0.164287	-0.332442	-0.471997	-0.252373	-0.572715	-0.700288	-0.66906	-0.396829	0.004421	0.889488	0.564633	1.200044
0.367218	0.197312	-0.185909	0.175103	-0.194348	-0.385508	-0.544136	-0.333503	-0.724765	-0.924094	-0.728705	-0.470691	-0.344836	0.404855	0.364288	0.660462
0.242946	-0.358251	-0.513227	-0.046888	-0.094553	-0.189457	-0.416057	-0.076612	-0.854918	-1.055221	-0.815418	-0.709504	-0.644689	0.008601	0.150206	0.202867
0.347047	0.001087	-0.389843	0.063192	-0.159736	-0.382408	-0.550108	-0.301459	-0.838128	-0.937882	-0.756366	-0.623663	-0.646123	0.01426	0.168345	0.119961
0.275805	-0.062385	-0.313065	0.057421	-0.200967	-0.426424	-0.592637	-0.357804	-0.957891	-1.186332	-0.913078	-0.816427	-0.606417	0.029506	0.219038	0.194975
0.292203	0.133121	-0.209647	0.138637	-0.249744	-0.4689	-0.636039	-0.460892	-0.73329	-0.730431	-0.622196	-0.381496	-0.389806	0.311812	0.409132	0.583559
0.337775	0.123132	-0.242605	0.115405	-0.12452	-0.287562	-0.506771	-0.145685	-0.802834	-0.771799	-0.655484	-0.566854	-0.523936	0.07829	0.347093	0.377903
0.381342	0.359521	-0.165942	0.173339	-0.325601	-0.680117	-0.788985	-0.677059	-0.985029	-1.174208	-0.838663	-0.87531	-0.269156	0.458052	0.520158	0.707724
0.23912	-0.135647	-0.408356	-0.016359	-0.182652	-0.369185	-0.557826	-0.187103	-0.918234	-0.954447	-0.677669	-0.7728	-0.035247	0.67795	0.627771	1.008486
0.3223	0.22266	-0.260343	0.132289	-0.128692	-0.286034	-0.520605	-0.096986	-0.784691	-0.735524	-0.592659	-0.637582	-0.260179	0.286515	0.487677	0.496144
0.311497	0.172994	-0.264756	0.106414	-0.25156	-0.5385	-0.660865	-0.364184	-0.902189	-1.07258	-0.668236	-0.853054	-0.405683	0.073534	0.31577	0.218602
0.22031	-0.210499	-0.456715	-0.062712	-0.154754	-0.432446	-0.552353	-0.176877	-0.966544	-1.111815	-0.652459	-0.863513	-0.068019	0.531296	0.526379	0.647435
0.283661	-0.078172	-0.411721	0.000512	-0.188739	-0.531329	-0.618849	-0.240161	-0.729765	-0.762789	-0.404965	-0.544418	-0.05956	0.500827	0.57995	0.72708
0.304023	-0.127566	-0.397614	0.012295	-0.163795	-0.484594	-0.618849	-0.213648	-0.727937	-0.725039	-0.351683	-0.472087	0.31445	0.959092	0.825129	1.161714
0.3169	0.015118	-0.379048	-0.000618	-0.180784	-0.515154	-0.665327	-0.229977	-0.72111	-0.672482	-0.307895	-0.420885	-0.173041	0.409493	0.475736	0.392865
0.132032	-0.574101	-0.70723	-0.217667	-0.112758	-0.347584	-0.512605	0.030194	-0.790789	-0.699935	-0.259808	-0.503309	-0.039504	0.522619	0.51732	0.513751
0.313544	-0.115757	-0.455062	-0.010563	-0.159818	-0.477411	-0.606244	-0.113562	-0.693839	-0.514141	-0.149847	-0.307195	0.034947	0.63522	0.574035	0.666223
0.152053	-0.472564	-0.693477	-0.250981	-0.103689	-0.300447	-0.490385	0.08465	-0.987514	-1.020602	-0.404109	-0.85568	-0.026379	0.551889	0.550118	0.562791
0.268191	-0.149322	-0.436469	-0.121503	-0.079803	-0.363931	-0.497732	0.049172	-0.980694	-1.097911	-0.387503	-0.845142	-0.087723	0.512847	0.520158	0.592806
0.22633	-0.404882	-0.58526	-0.272095	-0.11674	-0.444963	-0.517567	-0.086878	-0.79759	-0.592263	-0.083637	-0.421423	-0.127185	0.36025	0.469761	0.502831
0.191891	-0.385239	-0.58526	-0.280729	-0.036576	-0.291285	-0.401308	0.120788	-0.770407	-0.647353	-0.112085	-0.431327	-0.260179	0.262777	0.398407	0.304049
0.284448	-0.180932	-0.487672	-0.199054	-0.16489	-0.551114	-0.534805	-0.149369	-0.894161	-0.802615	-0.187596	-0.648967	-0.214542	0.316723	0.442591	0.350996
0.206162	-0.476998	-0.688665	-0.322122	-0.049221	-0.30244	-0.411168	0.040023	-0.833181	-0.702397	-0.10279	-0.441291	0.067633	0.757311	0.681623	0.781839
0.289863	-0.180932	-0.500077	-0.169111	-0.186944	-0.579956	-0.547077	-0.319507	-0.853475	-0.76494	-0.166643	-0.535346	-0.099315	0.475948	0.565108	0.491255
0.29115	-0.06335	-0.399365	-0.09849	-0.096361	-0.428732	-0.477927	-0.104399	-1.01558	-0.984321	-0.285972	-0.753016	-0.420734	0.170551	0.368476	0.106413
0.343879	0.022601	-0.293175	0.014007	-0.041301	-0.327471	-0.465596	-0.024209	-1.10181	-1.21324	-0.327072	-0.818066	-0.515375	-0.042086	0.27998	-0.12352
0.247973	-0.048628	-0.389717	-0.010684	0.036174	-0.101628	-0.32684	0.201853	-0.944777	-0.917905	-0.209601	-0.619542	-0.411832	0.160605	0.339133	0.072236
0.340593	0.259459	-0.272754	0.08062	-0.087256	-0.263944	-0.492778	-0.132858	-1.360465	-1.776056	-0.651253	-1.414506	-0.138307	0.492524	0.526156	0.406625
0.284448	-0.139458	-0.381853	0.018186	0.059956	-0.000835	-0.299507	0.27457	-1.315189	-1.699724	-0.608462	-1.280812	-0.453421	0.049042	0.320438	-0.085689
0.352147	0.212742	-0.275521	0.0949	-0.16092	-0.411735	-0.601677	-0.41437	-1.04685	-1.147264	-0.292886	-0.707622	-0.240588	0.375151	0.475357	0.328356
0.22827	-0.137468	-0.400537	-0.016791	-0.143924	-0.402966	-0.512906	-0.245365	-1.072004	-1.135107	-0.348156	-0.789637	-0.205898	0.370516	0.489497	0.301908
0.400981	0.44878	-0.147258	0.217384	-0.07815	-0.289779	-0.465768	-0.189518	-0.744915	-0.577372	0.015422	-0.193902	0.111829	0.749408	0.68156	0.73313
0.23912	-0.230249	-0.511004	-0.061847	-0.091217	-0.289779	-0.488019	-0.242542	-0.939855	-0.968515	-0.213836	-0.63138	-0.2929	0.233704	0.400488	0.177069
0.353492	0.282002	-0.174028	0.189675	-0.190909	-0.471896	-0.55733	-0.432958	-1.010727	-1.085239	-0.273563	-0.641997	0.147052	0.784343	0.735591	0.769679
0.197308	-0.411712	-0.52347	-0.034316	-0.046481	-0.207548	-0.413674	-0.034319	-0.829821	-0.720934	-0.043533	-0.351531	-0.105298	0.458805	0.59153	0.466282
0.411808	0.468529	-0.095562	0.242216	-0.232752	-0.608083	-0.653691	-0.639718	-0.843427	-0.746341	-0.043533	-0.288664	-0.181754	0.277621	0.519686	0.255293
0.208134	-0.269841	-0.414575	-0.02117	-0.134324	-0.397063	-0.537433	-0.278255	-1.072004	-1.21253	-0.336789	-0.81106	-0.212479	0.277121	0.543217	0.301908
0.409663	0.353929	-0.103769	0.217384	-0.109417	-0.375087	-0.537433	-0.278255	-0.887371	-0.943184	-0.186568	-0.506577	-0.332276	0.081871	0.456637	0.062199
0.415061	0.269292	-0.130581	0.217384	-0.158076	-0.433775	-0.567291	-0.442263	-0.607046	-0.288779	0.230331	0.121651	0.021848	0.508184	0.71148	0.58724
0.553462	0.691736	0.063653	0.359023	-0.049221	-0.17309	-0.421206	-0.080602	-1.01955	-1.135107	-0.282317	-0.718347	-0.127222	0.369934	0.617951	0.464521
0.311497	-0.097906	-0.305579	0.065935	-0.162039	-0.410326	-0.540109	-0.298224	-0.607046	-0.301438	0.192227	0.068564	-0.443128	-0.030961	0.40566	-0.06918
0.579658	0.777886	0.14484	0.441508	-0.090046	-0.202553	-0.441135	-0.172263	-0.896036	-0.835669	-0.096266	-0.490609	-0.429982	0.042372	0.444541	0.008712
0.281009	-0.137468	-0.388078	0.033327	-0.094014	-0.186233	-0.413845	-0.12581	-0.543539	-0.283549	0.201291	0.077596	-0.232245	0.36	0.632802	0.331356
0.419341	0.32141	-0.116179	0.193897	-0.206784	-0.447188	-0.587236	-0.432958	-0.673425	-0.471375	0.105525	-0.227532	0.147825	0.831143	0.892286	0.934712
0.479946	0.334194	-0.114227	0.2098	-0.254526	-0.528664	-0.642246	-0.535685	-0.681899	-0.481948	0.123718	-0.228653	-0.140416	0.448623	0.692926	0.464521
0.4582	0.36671	-0.126687	0.164329	-0.119639	-0.275195	-0.434214	-0.156471	-1.026369	-1.21324	-0.277036	-0.83252	0.183194	0.906028	0.91955	1.002411
0.288393	-0.228507	-0.451952	-0.034056	-0.283429	-0.604949	-0.657291	-0.679272	-0.642644	-0.496807	0.139561	-0.14379	-0.041674	0.612038	0.747097	0.720074
0.485376	0.44878	-0.068702	0.252213	-0.11674	-0.238052	-0.434214	-0.111144	-0.879491	-0.900921	-0.10059	-0.585863	-0.258647	0.424147	0.60241	0.373187
0.355554	-0.038795	-0.350774	0.024507	-0.136667	-0.221818	-0.434214	-0.156471	-0.757198	-0.690495	0.005019	-0.356732	-0.29549	0.311313	0.599751	0.289607
0.268191	-0.293119	-0.53264	-0.127783	-0.146794	-0.317684	-0.453797	-0.162959	-0.695557	-0.471375	0.111985	-0.195437	-0.556982	-0.080587	0.377808	-0.102111
0.408496	-0.090256	-0.344567	0.055352	-0.13089	-0.320693	-0.423821	-0.169763	-0.59652	-0.276133	0.198784	-0.026308	-0.35319	0.177984	0.452129	0.099667
0.447312	0.158212	-0.186469	0.097493	-0.203631	-0.493974	-0.550616	-0.39741	-0.794447	-0.600804	0.002977	-0.301445	-0.072699	0.587302	0.674691	0.591035
0.454805	0.076735	-0.165942	0.049696	-0.154754	-0.414744	-0.48337	-0.304674	-0.688726	-0.443664	0.034669	-0.17498	-0.408022	0.10419	0.377808	0.033534
0.603797	0.438893	-0.021121	0.141473	-0.268497	-0.711851	-0.631558	-0.580512	-0.490527	0.138836	0.297494	0.323117	-0.134468	0.503008	0.542425	0.365481
0.473657	-0.155568	-0.253503	-0.095846	-0.196699	-0.604505	-0.575033	-0.448299	-0.773933	-0.360466	-0.013937	-0.165268	-0.517674	0.050402	0.287827	-0.213915
0.59494	0.23257	-0.05861	0.067258	-0.191667	-0.57259	-0.56783	-0.41437	-0.902851	-0.679205	-0.201376	-0.395421	-0.228374	0.463801	0.518991	0.331356
0.659441	0.21018	-0.079242	0.093554	-0.243605	-0.658242	-0.560054	-0.456044	-0.862012	-0.511746	-0.105726	-0.246989	-0.449538	0.050402	0.35106	-0.151679
0.650561	0.22266	0.041049	0.164791	-0.305318	-0.716659	-0.622215	-0.591406	-1.172329	-1.070348	-0.528872	-0.830541	-0.610035	-0.100493	0.238284	-0.335773
0.516019	-0.107785	-0.149867	-0.018708	-0.24555	-0.439807	-0.411876	-0.253195	-1.208763	-0.954447	-0.498253	-0.695218	-0.479309	0.187932	0.321922	-0.089749
0.691125	0.465306	0.157785	0.196913	-0.314266	-0.492736	-0.434214	-0.343195	-1.190551	-0.821623	-0.480883	-0.616366	-0.509065	0.24189	0.346148	0.066569
0.558461	-0.178958	-0.193789	-0.007548	-0.333169	-0.501342	-0.431488	-0.313917	-0.981757	-0.283549	-0.277568	-0.195437	-0.50415	0.227649	0.316962	0.062199
0.512416	-0.281438	-0.336722	-0.079379	-0.2735	-0.292701	-0.297219	-0.053896	-1.27896	-0.821623	-0.605998	-0.729082	-0.232245	0.651786	0.507619	0.543623
0.512416	-0.19078	-0.284922	-0.074951	-0.388799	-0.451128	-0.469374	-0.416039	-0.965126	-0.266194	-0.280735	-0.176021	-0.571798	0.177984	0.233535	-0.011647
0.442455	-0.432909	-0.460386	-0.184268	-0.296369	-0.319912	-0.387243	-0.190892	-1.183768	-0.691992	-0.486949	-0.521264	-0.409685	0.467586	0.387486	0.377903
0.324923	-0.886212	-0.616249	-0.275671	-0.291409	-0.35952	-0.339718	-0.208106	-0.914554	-0.122395	-0.19284	-0.070514	-0.747163	0.041411	0.083473	-0.173142
0.434904	-0.633723	-0.509833	-0.134498	-0.362612	-0.495041	-0.487368	-0.472092	-0.89531	-0.236377	-0.248905	-0.074042	-0.585863	0.296024	0.183526	0.148803
0.558336	-0.470468	-0.429454	-0.001464	-0.248693	-0.361248	-0.358927	-0.242909	-1.216148	-0.911373	-0.644389	-0.863827	-0.473253	0.528979	0.322944	0.542387
0.550449	-0.520145	-0.532709	0.000665	-0.064959	0.017932	-0.099777	0.2132	-0.698536	-0.102432	-0.203178	-0.148892	-0.107316	1.080793	0.578064	1.193278
0.667223	-0.200726	-0.380186	0.193839	-0.197209	-0.163468	-0.145219	-0.049576	-0.881913	-0.301565	-0.305221	-0.342351	-0.449018	0.647144	0.290569	0.818144
0.696218	-0.262282	-0.4705	0.183183	-0.143879	-0.091676	-0.114379	-0.063705	-0.337364	0.656393	0.09429	0.404398	-0.507703	0.547402	0.311142	0.964078
0.633488	-0.47923	-0.529092	0.218718	-0.127924	-0.106371	0.012862	-0.012872	-0.047203	0.861826	0.008938	0.163229	-0.210989	0.888812	0.601649	1.707686
0.772246	-0.189759	-0.389966	0.337731	-0.060746	0.060816	0.225984	0.31219	0.303403	1.400262	0.233549	0.565017	-0.237178	0.77133	0.588381	1.582468
0.934542	0.121987	-0.276889	0.446937	-0.064115	0.07685	0.268954	0.323878	-0.017496	0.599083	-0.14485	-0.127623	-0.44383	0.378801	0.508562	1.221765
0.981932	0.307649	-0.20389	0.469756	-0.09405	-0.010661	0.227903	0.333859	0.023644	0.723709	-0.022514	0.035289	-0.636603	0.080659	0.396782	0.820303
0.904317	0.298952	-0.170013	0.350368	-0.056542	0.035841	0.22733	0.462889	-0.249617	0.207178	-0.317192	-0.247514	-0.537858	0.198504	0.463494	0.931238
1.08428	1.127257	0.155154	0.561789	-0.437149	-0.745785	-0.295678	-0.445439	-0.329177	0.285878	-0.224103	0.040489	-0.799112	-0.167585	0.239883	0.288991
0.762594	0.044527	-0.37883	0.074024	-0.337471	-0.467462	-0.243544	-0.12454	-1.000022	-0.884486	-0.863946	-1.008397	-0.792818	-0.211356	0.205107	0.24586
0.848882	0.582779	-0.242105	0.187822	-0.427556	-0.607185	-0.377654	-0.312119	-0.785643	-0.247736	-0.506133	-0.315007	-0.129188	0.639058	0.636876	1.045911
0.777742	0.217359	-0.407538	0.048148	-0.432624	-0.653561	-0.476414	-0.273435	-1.145339	-0.886079	-0.896882	-0.843264	-0.251717	0.455929	0.60746	0.818144
0.858202	0.748876	-0.218533	0.189188	-0.479821	-0.707419	-0.579835	-0.290128	-1.238407	-0.925633	-0.945434	-0.854017	-0.638311	-0.160687	0.307097	0.002459
0.595331	-0.194141	-0.605373	-0.121929	-0.398623	-0.45759	-0.500439	-0.017076	-1.288274	-0.97733	-0.966912	-1.021854	-0.199466	0.4114	0.602751	0.588772
0.813221	0.715726	-0.214656	0.191378	-0.616757	-0.868968	-0.768168	-0.582992	-1.115985	-0.544398	-0.639588	-0.521264	-0.751468	-0.374999	0.179668	-0.268329
0.535955	-0.214252	-0.677091	-0.102335	-0.458802	-0.549182	-0.601707	-0.199469	-1.569716	-1.586883	-1.153923	-1.40202	-0.486664	-0.019358	0.364783	-0.041274
0.738621	0.532561	-0.317802	0.153368	-0.504113	-0.616756	-0.634027	-0.237512	-1.321282	-1.029638	-0.887026	-0.978677	-0.008857	0.686342	0.661691	0.630646
0.541554	-0.131226	-0.638058	-0.060329	-0.539053	-0.655625	-0.67535	-0.288236	-1.177336	-0.768987	-0.720969	-0.720275	-0.099281	0.626056	0.616265	0.538058
0.768315	0.672672	-0.228698	0.214816	-0.468944	-0.564167	-0.573548	-0.123724	-1.129106	-0.651978	-0.624893	-0.593154	-0.246468	0.401284	0.450853	0.269644
0.536371	-0.319507	-0.678571	-0.080882	-0.614386	-0.85314	-0.761868	-0.487883	-0.925372	-0.23253	-0.339351	-0.205242	-0.198084	0.496344	0.53529	0.374263
0.718146	0.384518	-0.311417	0.191312	-0.639846	-0.830562	-0.80794	-0.582656	-0.904836	-0.115327	-0.247311	-0.089575	-0.732584	-0.278151	0.071338	-0.63893
0.48064	-0.4094	-0.690543	-0.123957	-0.446635	-0.439172	-0.551309	-0.06878	-0.966544	-0.214707	-0.2876	-0.113617	-0.482845	0.06849	0.267841	-0.23291
0.662357	0.182943	-0.365777	0.125456	-0.643309	-0.822302	-0.716609	-0.5096	-0.546745	0.670573	0.122536	0.644955	-0.05076	0.810506	0.628513	0.60085
0.692083	0.140866	-0.332829	0.210309	-0.588896	-0.715004	-0.699514	-0.412308	-0.72481	0.322131	-0.057265	0.311138	-0.266452	0.563571	0.426322	0.269644
0.558336	-0.410469	-0.611769	0.040772	-0.479743	-0.422653	-0.531206	-0.103264	-0.808142	0.036901	-0.167833	0.15158	-0.274857	0.559522	0.483872	0.374263
0.636253	-0.157295	-0.520694	0.12094	-0.381032	-0.281077	-0.4225	0.102944	-1.017013	-0.375396	-0.401742	-0.315007	-0.634005	0.064647	0.245358	-0.217515
0.575096	-0.372057	-0.638807	-0.005984	-0.444692	-0.359329	-0.447049	-0.023212	-1.119869	-0.535052	-0.521479	-0.450776	-0.636646	0.081962	0.216591	-0.314133
0.705113	-0.076072	-0.515208	0.133689	-0.432477	-0.336396	-0.414641	-0.004361	-1.055912	-0.388209	-0.43948	-0.325842	-0.279792	0.567502	0.515542	0.323955
0.575096	-0.765286	-0.878444	-0.121201	-0.520386	-0.575985	-0.52905	-0.241019	-0.994337	-0.326794	-0.430404	-0.248974	-0.516239	0.217798	0.346263	-0.07245
0.682781	-0.311098	-0.638807	0.023386	-0.435325	-0.335335	-0.390037	-0.034307	-1.094767	-0.533173	-0.553198	-0.430865	-0.364809	0.474071	0.497049	0.294798
0.545446	-0.805669	-0.917661	-0.186414	-0.432477	-0.344035	-0.409613	-0.040513	-1.035354	-0.349809	-0.43948	-0.220497	-0.375042	0.440454	0.522341	0.181208
0.764695	-0.026639	-0.490811	0.128292	-0.462219	-0.475938	-0.452082	-0.178614	-1.158637	-0.586226	-0.531418	-0.47242	-0.306515	0.457422	0.574185	0.311346
0.678987	-0.350752	-0.619709	-0.010506	-0.504729	-0.584363	-0.541253	-0.402892	-0.989609	-0.309136	-0.379848	-0.155622	-0.329838	0.330244	0.565702	0.199012
0.948163	0.471589	-0.261749	0.230339	-0.338446	-0.238432	-0.299608	0.163122	-1.183666	-0.730431	-0.558492	-0.492279	-0.540623	0.095453	0.445415	-0.123231
0.761013	-0.271567	-0.557323	-0.00572	-0.465624	-0.525876	-0.448796	-0.181574	-0.880585	0.135224	-0.137221	0.195477	-0.167775	0.569687	0.726053	0.411863
0.899364	0.044731	-0.440226	0.093393	-0.429377	-0.512771	-0.381548	-0.044612	-1.174939	-0.398156	-0.394484	-0.277272	-0.466053	-0.049677	0.473961	-0.155376
0.972598	0.044731	-0.289785	0.149013	-0.459875	-0.529728	-0.483048	-0.205556	-1.256595	-0.569556	-0.497417	-0.505549	-0.565192	-0.217279	0.319096	-0.367306
0.953764	0.269292	-0.264555	0.083388	-0.398094	-0.438549	-0.45822	-0.114446	-1.32657	-0.73761	-0.572336	-0.640679	-0.490977	-0.117986	0.388696	-0.281445
0.831932	-0.129603	-0.435207	-0.034056	-0.350124	-0.355976	-0.369071	0.057742	-1.243127	-0.63241	-0.469582	-0.486487	-0.129341	0.321199	0.665186	0.135616
0.79812	-0.385239	-0.631061	-0.118972	-0.426482	-0.511299	-0.480376	-0.149369	-1.629321	-1.330844	-0.766358	-1.081192	-0.340806	0.028335	0.503354	-0.208311
1.010827	0.162495	-0.359969	0.083016	-0.394673	-0.422044	-0.396444	0.040556	-1.517745	-1.013111	-0.580736	-0.832162	-0.208002	0.248382	0.642177	0.120434
0.991959	0.211241	-0.322517	0.101897	-0.280434	-0.151037	-0.274997	0.339415	-1.673763	-1.423174	-0.74234	-1.167169	-0.444317	-0.085764	0.483451	-0.310573
1.065277	0.514317	-0.236355	0.200967	-0.430464	-0.463221	-0.492711	-0.113562	-1.700415	-1.434408	-0.746099	-1.202065	-0.461884	-0.096551	0.441045	-0.419071
0.820354	-0.273462	-0.632266	-0.121272	-0.401676	-0.348603	-0.391519	0.076074	-1.700415	-1.48547	-0.751317	-1.20408	-0.199234	0.311812	0.584933	-0.058392
1.073092	0.383473	-0.345922	0.147839	-0.534404	-0.651375	-0.593741	-0.286208	-1.593607	-1.280586	-0.676138	-1.061923	-0.299454	0.153934	0.518071	-0.25702
0.916146	-0.259932	-0.693915	-0.052266	-0.385766	-0.286727	-0.346943	0.184973	-1.378869	-0.854925	-0.454708	-0.74528	-0.096501	0.424147	0.689576	0.123409
0.925731	-0.208664	-0.686649	-0.069294	-0.346135	-0.245472	-0.304622	0.302697	-1.200994	-0.582101	-0.297427	-0.393047	-0.510742	-0.013274	0.349694	-0.407719
0.873248	-0.442811	-0.757912	-0.143456	-0.3732	-0.297534	-0.311961	0.165575	-1.36277	-0.853023	-0.425953	-0.664811	-0.323766	0.202047	0.493669	-0.187792
0.903261	-0.372057	-0.757912	-0.162162	-0.457516	-0.429937	-0.369071	0.012535	-1.13447	-0.405496	-0.179337	-0.260967	-0.567233	-0.073315	0.27825	-0.553282
0.888238	-0.623766	-0.814863	-0.169652	-0.464691	-0.428789	-0.364081	-0.061061	-1.241185	-0.659912	-0.355996	-0.580961	-0.311617	0.237869	0.500894	-0.085927
1.029466	-0.16722	-0.606992	0.03546	-0.386757	-0.356287	-0.297029	0.054372	-1.544565	-1.264911	-0.656532	-1.081495	-0.512511	0.011063	0.403969	-0.267069
1.014325	-0.054251	-0.567071	0.022663	-0.3344	-0.160853	-0.19972	0.19948	-1.283574	-0.890962	-0.48385	-0.636074	-0.172672	0.518781	0.701281	0.282227
0.893587	-0.675241	-0.891697	-0.255972	-0.241389	0.033865	-0.06932	0.428139	-1.585121	-1.40606	-0.817482	-1.278323	-0.066894	0.749493	0.755719	0.441301
1.029326	-0.216964	-0.598982	-0.070068	-0.246261	-0.0228	-0.109519	0.355571	-1.504527	-1.199743	-0.736388	-1.084118	-0.186062	0.549349	0.643089	0.228021
0.964793	-0.612992	-0.787014	-0.171152	-0.38925	-0.32525	-0.264739	-0.008569	-1.358067	-0.913734	-0.600926	-0.765715	-0.249704	0.470116	0.670248	0.228021
1.126021	-0.135647	-0.579825	0.018132	-0.35059	-0.269603	-0.202284	0.163122	-1.145175	-0.443664	-0.329945	-0.220497	-0.056559	0.774226	0.861191	0.555033
0.995457	-0.413128	-0.71112	-0.127021	-0.401382	-0.316752	-0.262347	-0.037699	-1.470631	-1.071365	-0.715198	-0.918726	-0.408614	0.313448	0.580823	0.111016
1.074855	-0.218582	-0.587039	-0.019554	-0.385208	-0.371316	-0.317298	-0.047045	-1.31738	-0.640921	-0.531418	-0.596662	-0.266452	0.451783	0.661709	0.273952
0.859455	-0.754157	-0.806708	-0.194402	-0.322272	-0.263059	-0.324662	-0.009704	-1.229101	-0.507534	-0.444105	-0.378394	-0.81397	-0.364867	0.259476	-0.603341
1.108894	0.245006	-0.339186	0.170731	-0.351348	-0.269603	-0.322323	-0.039049	-1.578353	-1.148724	-0.865853	-1.000247	-0.521565	0.00419	0.472602	-0.24838
0.901363	-0.431586	-0.65953	-0.04439	-0.348892	-0.32525	-0.347068	-0.047045	-1.645185	-1.303777	-0.98937	-1.192117	-0.319898	0.241552	0.645366	0.078626
1.157686	0.511181	-0.178063	0.360685	-0.528955	-0.685684	-0.642246	-0.606475	-1.434583	-0.916318	-0.737821	-0.748664	-0.532474	-0.036144	0.455952	-0.282807
0.875115	-0.311098	-0.615212	-0.030089	-0.491267	-0.578464	-0.59003	-0.488887	-1.78591	-1.700047	-1.15938	-1.463768	-0.54727	-0.059729	0.480748	-0.323375
1.053721	0.376605	-0.316419	0.220326	-0.388383	-0.364787	-0.478379	-0.172263	-1.780711	-1.572688	-1.144056	-1.39592	-0.278126	0.285859	0.657813	0.012366
0.980222	0.056954	-0.394796	0.168841	-0.439834	-0.519265	-0.567291	-0.352499	-1.883036	-1.763282	-1.196766	-1.500492	-0.208505	0.334466	0.729749	0.1449
1.053721	0.514262	-0.144945	0.342673	-0.559994	-0.709411	-0.636546	-0.524343	-1.722805	-1.546988	-1.090935	-1.302199	-0.243513	0.246109	0.708741	0.013016
0.83201	-0.359381	-0.595243	-0.030089	-0.680524	-0.944746	-0.778992	-0.808298	-1.396964	-0.817288	-0.69704	-0.63138	-0.646123	-0.223862	0.410134	-0.534169
1.032755	0.428999	-0.173313	0.231659	-0.610295	-0.853983	-0.756962	-0.72162	-1.815945	-1.623349	-1.112247	-1.406664	-0.379772	0.149581	0.590414	-0.139269
0.912546	-0.147378	-0.505721	-0.019141	-0.38697	-0.390455	-0.44092	0.000715	-1.655962	-1.227862	-0.878584	-1.004137	-0.638045	-0.247754	0.364783	-0.660797
0.936952	0.024996	-0.394796	0.084108	-0.531176	-0.6638	-0.638747	-0.434696	-1.298953	-0.413624	-0.472153	-0.277272	-0.109887	0.461859	0.766707	0.25263
0.88075	-0.02248	-0.385991	0.063372	-0.530416	-0.624927	-0.633769	-0.460892	-1.318885	-0.582101	-0.487806	-0.278038	-0.437885	0.115645	0.527856	-0.180111
0.999079	0.170619	-0.236418	0.155339	-0.31446	-0.257797	-0.369049	0.182624	-1.549025	-1.034679	-0.723215	-0.770105	-0.37657	0.298444	0.534008	-0.0774
0.922049	-0.105824	-0.353079	0.095822	-0.57203	-0.785526	-0.692917	-0.595099	-1.675978	-1.265763	-0.889064	-1.068299	-0.737937	-0.210536	0.321316	-0.509506
0.871298	-0.379365	-0.579825	-0.013632	-0.491267	-0.646904	-0.629375	-0.355921	-1.459745	-0.932255	-0.72386	-0.673903	-0.472679	0.105553	0.515542	-0.139269
0.871298	-0.205509	-0.495159	0.005212	-0.56188	-0.730907	-0.663663	-0.543027	-1.365515	-0.607231	-0.551374	-0.404841	-0.659386	-0.03277	0.385458	-0.360606
0.841259	-0.308192	-0.515208	-0.02727	-0.541041	-0.700254	-0.651519	-0.516945	-1.367457	-0.642873	-0.54463	-0.449139	-0.590114	0.044833	0.466167	-0.282807
0.997368	0.153073	-0.273172	0.211313	-0.411713	-0.455019	-0.510617	-0.228233	-1.506473	-0.917905	-0.722603	-0.666511	-0.745939	-0.154798	0.344193	-0.538213
0.758637	-0.451492	-0.612523	-0.096724	-0.369055	-0.362029	-0.416485	-0.047045	-1.380854	-0.630202	-0.555145	-0.469112	-0.692606	0.000931	0.360735	-0.360606
0.914493	0.007366	-0.391209	0.064182	-0.515459	-0.777025	-0.622215	-0.545065	-1.475127	-0.865657	-0.727855	-0.696905	-0.691294	-0.10381	0.381405	-0.385487
0.831683	-0.522308	-0.696922	-0.177366	-0.324739	-0.396795	-0.359199	-0.072484	-1.549025	-0.984321	-0.846631	-0.889005	-0.381453	0.437479	0.608916	0.211033
0.874825	-0.246905	-0.55986	-0.093379	-0.423807	-0.624927	-0.535602	-0.408469	-1.616025	-1.038067	-0.873888	-0.927999	-0.568703	0.101889	0.463935	-0.208527
0.728677	-0.814991	-0.820569	-0.284183	-0.633021	-1.080818	-0.776907	-0.959762	-1.457824	-0.742347	-0.659743	-0.526668	-0.180081	0.641542	0.821176	0.526029
0.876947	-0.23844	-0.489762	-0.048895	-0.467122	-0.763069	-0.550078	-0.416039	-1.698201	-1.127345	-0.809426	-0.897919	-0.308677	0.330154	0.685225	0.123409
0.752975	-0.744153	-0.781147	-0.255439	-0.500053	-0.838515	-0.636546	-0.63244	-1.875384	-1.661825	-1.123033	-1.350398	-0.423415	0.21337	0.595367	-0.041523
1.017952	0.015118	-0.393531	0.075128	-0.467901	-0.725032	-0.547378	-0.405087	-1.68491	-1.050563	-0.83037	-0.899623	-0.271868	0.44315	0.760555	0.206348
0.835771	-0.614818	-0.72546	-0.138193	-0.28151	-0.368156	-0.339273	0.110898	-1.782443	-1.423174	-0.991386	-1.140774	-0.302082	0.350059	0.72464	0.14781
0.966991	-0.004663	-0.368251	0.130929	-0.44553	-0.705101	-0.52728	-0.320618	-1.598856	-0.913779	-0.709635	-0.709862	-0.232245	0.414214	0.797424	0.225872
0.852598	-0.230249	-0.499418	-0.008404	-0.503154	-0.824679	-0.579148	-0.385084	-1.460834	-0.705043	-0.580736	-0.431908	-0.304022	0.217732	0.722022	-0.012555
0.910554	0.282002	-0.311556	0.125456	-0.521608	-0.818706	-0.571607	-0.383739	-1.661031	-1.091774	-0.838014	-0.905437	-0.177508	0.483087	0.843062	0.291878
0.695784	-0.503555	-0.642508	-0.105215	-0.535258	-0.864667	-0.664961	-0.552904	-1.552761	-0.837024	-0.753486	-0.812373	-0.135919	0.557479	0.855316	0.291878
0.897361	0.373633	-0.25978	0.182329	-0.425577	-0.657898	-0.514986	-0.197512	-1.490385	-0.692633	-0.645658	-0.556343	-0.100875	0.567428	0.867558	0.424271
0.775847	-0.414714	-0.669829	-0.088061	-0.339122	-0.498976	-0.354238	0.074741	-1.547925	-0.936258	-0.773537	-0.836052	-0.467732	0.142048	0.564725	-0.110161
0.805677	-0.129603	-0.559666	-0.023617	-0.410568	-0.644967	-0.430973	-0.087769	-1.603616	-1.027621	-0.784645	-0.87531	-0.17546	0.517606	0.77635	0.350996
0.759116	-0.444259	-0.623638	-0.078265	-0.505679	-0.834309	-0.529696	-0.339003	-1.57908	-0.988205	-0.699236	-0.864799	-0.232245	0.428702	0.722022	0.230844
0.822664	-0.125698	-0.440226	0.00677	-0.55832	-0.9084	-0.650465	-0.537595	-1.536529	-0.998678	-0.697739	-0.816427	-0.275735	0.384367	0.701021	0.255293
0.703187	-0.472564	-0.551014	-0.095461	-0.488884	-0.735613	-0.571607	-0.329807	-1.474048	-0.829821	-0.579093	-0.641997	-0.502455	0.057983	0.53161	-0.146959
0.966991	0.128576	-0.244172	0.179762	-0.33816	-0.41511	-0.369071	0.038637	-1.649759	-1.29444	-0.847789	-1.123502	-0.291727	0.417368	0.712356	0.264968
0.908882	-0.056275	-0.393531	0.074024	-0.423824	-0.618951	-0.468145	-0.251805	-1.355253	-0.59466	-0.459938	-0.497114	-0.371776	0.280253	0.589244	0.020966
0.839466	-0.309558	-0.52253	-0.009089	-0.386084	-0.58914	-0.418639	-0.107276	-1.33219	-0.526762	-0.501862	-0.519755	-0.590114	-0.002447	0.461659	-0.220877
0.826381	-0.513464	-0.575258	-0.070068	-0.499155	-0.832789	-0.581795	-0.474497	-1.549025	-1.22682	-0.850865	-1.046876	-0.311617	0.461859	0.639692	0.294307
0.882594	-0.074141	-0.397575	0.04295	-0.555984	-0.975456	-0.653691	-0.691551	-1.428374	-0.917905	-0.668857	-0.736236	-0.596751	0.037872	0.44091	-0.114485
0.788987	-0.524629	-0.595243	-0.107612	-0.478342	-0.847659	-0.520196	-0.448299	-1.388437	-0.804767	-0.626916	-0.672451	-0.344836	0.530885	0.675433	0.311256
0.733017	-0.656619	-0.745291	-0.154775	-0.45352	-0.847659	-0.547378	-0.448299	-1.249167	-0.569556	-0.56185	-0.517177	-0.45281	0.294403	0.624912	0.132574
0.774079	-0.697172	-0.745291	-0.145091	-0.439834	-0.809134	-0.56231	-0.494616	-1.473079	-0.982663	-0.781517	-0.869514	-0.550366	0.19609	0.552447	0.066569
0.755419	-0.495039	-0.655104	-0.09022	-0.439834	-0.801674	-0.525171	-0.466805	-1.428374	-0.957434	-0.749444	-0.818066	-0.741796	-0.056319	0.449345	-0.270397
0.712559	-0.735557	-0.693915	-0.10447	-0.433554	-0.735613	-0.502687	-0.400848	-1.185939	-0.554438	-0.507893	-0.381496	-0.632874	-0.113432	0.447057	-0.286253
0.968475	0.187779	-0.233089	0.280899	-0.503976	-0.916455	-0.680206	-0.732115	-1.406553	-0.921654	-0.724538	-0.751786	-0.667458	-0.093337	0.45934	-0.273903
0.71069	-0.595037	-0.662449	-0.096225	-0.383887	-0.605927	-0.47055	-0.303412	-1.724825	-1.560055	-1.054168	-1.307839	-0.542162	0.145872	0.585593	0.02952
0.906465	0.160709	-0.253503	0.204776	-0.374834	-0.594579	-0.514898	-0.372245	-1.505308	-1.052478	-0.832816	-0.914578	-0.212479	0.542176	0.746494	0.417384
0.825906	-0.261704	-0.417769	0.10205	-0.28749	-0.433775	-0.38896	-0.158532	-1.300834	-0.655475	-0.604148	-0.492893	-0.754071	-0.270566	0.361912	-0.540727
0.929923	0.533868	-0.114227	0.310003	-0.299386	-0.485351	-0.47544	-0.195249	-1.667623	-1.37205	-1.008567	-1.18971	-0.234256	0.517606	0.737677	0.350996
0.66768	-0.404882	-0.568518	-0.056735	-0.277783	-0.39127	-0.416352	-0.112114	-1.678895	-1.449384	-1.003956	-1.219378	-0.752586	-0.253945	0.355804	-0.537359
0.903384	0.380292	-0.120456	0.295396	-0.526066	-0.934272	-0.770117	-0.81694	-1.45914	-0.846861	-0.758674	-0.72033	-0.390626	0.271689	0.620654	-0.024715
0.640003	-0.483758	-0.559666	-0.040695	-0.322329	-0.511299	-0.480436	-0.292078	-1.672317	-1.385943	-1.067278	-1.208919	-0.33627	0.311313	0.644938	0.011729
0.829365	0.190415	-0.234689	0.20926	-0.487635	-0.933427	-0.684417	-0.621883	-1.350488	-0.683184	-0.605072	-0.513734	-0.194859	0.547523	0.747097	0.279694
0.724945	-0.183072	-0.334989	0.086615	-0.358984	-0.64717	-0.544443	-0.345892	-1.556026	-1.086399	-0.868303	-0.951762	-0.510742	-0.005941	0.499774	-0.212335
0.818287	0.106348	-0.09621	0.317964	-0.446122	-0.828752	-0.615702	-0.576235	-1.659171	-1.373557	-0.998777	-1.198468	-0.85052	-0.406831	0.267244	-0.669636
0.645543	-0.544395	-0.44911	0.032886	-0.36194	-0.683946	-0.532138	-0.336756	-1.636558	-1.29444	-0.976276	-1.151303	-0.721231	-0.173882	0.35106	-0.427287
0.8349	0.002928	-0.143605	0.283166	-0.589484	-1.165127	-0.814511	-0.916062	-1.350488	-0.683184	-0.65344	-0.543914	-0.781872	-0.343722	0.371723	-0.516302
0.68824	-0.555568	-0.475552	0.037372	-0.382766	-0.753307	-0.546924	-0.479576	-1.561113	-1.141538	-0.827619	-0.965566	-0.904527	-0.512828	0.234509	-0.798062
0.842548	-0.180932	-0.201701	0.198127	-0.522462	-1.068129	-0.689663	-0.783754	-1.749415	-1.523956	-1.077154	-1.280384	-0.444978	0.153934	0.632802	-0.000407
0.788508	-0.353971	-0.267634	0.081114	-0.333169	-0.739773	-0.509969	-0.318503	-1.406584	-0.800011	-0.680176	-0.697196	-0.650736	-0.280538	0.44356	-0.43947
0.989714	0.347679	0.045313	0.350151	-0.225921	-0.5302	-0.376756	-0.103017	-1.791505	-1.562373	-1.119675	-1.408699	-0.410289	0.076195	0.605821	-0.02941
0.680731	-0.58647	-0.405254	-0.012118	-0.378799	-0.822448	-0.537065	-0.46131	-1.510141	-0.961189	-0.795048	-0.801914	-0.808191	-0.419965	0.332807	-0.645211
0.881296	0.204561	-0.04804	0.237058	-0.35606	-0.810171	-0.556744	-0.388509	-1.411673	-0.698591	-0.637946	-0.655957	-0.428149	0.094218	0.629405	-0.061264
0.702857	-0.557018	-0.451952	-0.003214	-0.264829	-0.645091	-0.465696	-0.245755	-1.431305	-0.965691	-0.732757	-0.768931	-0.388691	0.110071	0.659812	-0.077932
0.767759	-0.202684	-0.328751	0.065616	-0.264829	-0.584083	-0.416352	-0.156342	-1.595301	-1.297625	-0.939917	-1.085334	-0.662341	-0.227252	0.485084	-0.423561
0.713906	-0.242	-0.256791	0.084498	-0.327345	-0.7132	-0.497703	-0.299445	-1.670498	-1.398341	-0.971655	-1.297735	-0.6228	-0.197358	0.51552	-0.362528
0.843801	0.288934	-0.035581	0.256078	-0.305446	-0.659612	-0.436017	-0.210864	-1.908223	-1.852393	-1.25161	-1.789618	-0.403731	0.052258	0.690145	-0.094662
0.643584	-0.404882	-0.445715	-0.034407	-0.434244	-0.885203	-0.605873	-0.512603	-1.809236	-1.802071	-1.177706	-1.632077	-0.342811	0.189195	0.702258	0.00686
0.795351	0.032426	-0.165942	0.201452	-0.232121	-0.443178	-0.327669	0.041528	-1.780357	-1.675442	-1.156094	-1.555312	-0.304022	0.285983	0.726072	0.159993
0.573354	-0.705897	-0.548437	-0.046895	-0.309402	-0.690051	-0.438579	-0.165413	-1.52817	-1.244579	-0.896501	-1.10924	-0.390626	0.193589	0.636125	0.00686
0.706844	-0.33091	-0.391263	0.085037	-0.415487	-0.875719	-0.56166	-0.44307	-1.711837	-1.573916	-1.028399	-1.286614	-0.553668	-0.023254	0.548507	-0.350357
0.577087	-0.855872	-0.657295	-0.086458	-0.538387	-1.068786	-0.753064	-0.754532	-1.45914	-1.066966	-0.7468	-0.774117	-0.446194	0.213894	0.661691	-0.052736
0.686511	-0.442811	-0.513227	0.030943	-0.645237	-1.225075	-0.836454	-1.020294	-1.572495	-1.324134	-0.907518	-0.979139	-0.969392	-0.435963	0.329648	-0.68563
0.507922	-1.313677	-0.833904	-0.175221	-0.50959	-0.938715	-0.670285	-0.678562	-1.664999	-1.486615	-1.0654	-1.146897	-1.11494	-0.610647	0.196077	-0.869097
0.768238	-0.482497	-0.383771	0.22411	-0.330356	-0.594191	-0.500636	-0.369518	-1.446426	-1.155807	-0.937192	-0.841239	-1.166135	-0.497223	0.175466	-0.69345
0.583379	-1.075138	-0.721902	0.023236	-0.394551	-0.676712	-0.550616	-0.462733	-1.591369	-1.394758	-1.053011	-0.899526	-0.697966	0.282707	0.559517	0.257048
0.751298	-0.400496	-0.374536	0.339943	-0.4645	-0.890464	-0.694491	-0.733278	-1.589394	-1.239504	-1.020448	-0.841958	-0.723518	0.265416	0.509924	0.235431
0.567939	-0.744718	-0.459103	0.279476	-0.493139	-0.913437	-0.699514	-0.789749	-1.72779	-1.457371	-1.260387	-1.081965	-0.890748	0.013244	0.340084	-0.034512
0.531983	-0.372057	-0.222773	0.455159	-0.473238	-0.783379	-0.805981	-0.634595	-2.017224	-1.546699	-1.414379	-1.147855	-0.993978	0.026356	0.099845	-0.047145
0.096818	-1.154826	-0.682329	0.066745	-0.570923	-1.012325	-1.118962	-0.993126	-2.03112	-1.057574	-1.249696	-0.70516	-0.949502	0.105619	-0.056731	0.211533
0.185676	-0.395057	-0.329566	0.335302	-0.593548	-1.034987	-1.289058	-1.027984	-2.476518	-1.495577	-1.640202	-1.248826	-1.284074	-0.298456	-0.361621	-0.276458
-0.116484	-1.135045	-0.766514	-0.036529	-0.406161	-0.638834	-1.070935	-0.488887	-2.532936	-1.405569	-1.646148	-1.149217	-1.534156	-0.693976	-0.566275	-0.666195
-0.106744	-0.756237	-0.577141	0.061777	-0.514777	-0.837431	-1.203687	-0.639718	-2.513211	-1.431544	-1.661765	-1.197609	-1.250107	-0.21743	-0.291134	0.044498
-0.176962	-0.966459	-0.668964	-0.084178	-0.502656	-0.78456	-1.167391	-0.656346	-2.569589	-1.534007	-1.672414	-1.194786	-1.289897	-0.281066	-0.373816	-0.097806
-0.0405	-0.56313	-0.523857	0.047823	-0.548436	-0.883604	-1.198793	-0.771095	-2.499051	-1.367391	-1.557202	-1.062493	-1.466041	-0.635842	-0.508344	-0.427836
-0.188696	-1.015243	-0.765887	-0.186451	-0.492557	-0.806881	-1.178062	-0.712275	-2.429319	-1.382174	-1.540884	-1.036177	-1.309839	-0.37371	-0.424282	-0.123213
0.007922	-0.318188	-0.504396	-0.027704	-0.496613	-0.79931	-1.134736	-0.702936	-2.522589	-1.573916	-1.598884	-1.149233	-1.213612	-0.253945	-0.410471	-0.028513
0.016091	-0.140256	-0.543348	-0.008847	-0.535004	-0.830178	-1.171172	-0.773228	-2.321398	-1.255531	-1.356042	-0.768249	-1.261068	-0.456891	-0.46099	-0.174181
0.006144	-0.026398	-0.483952	-0.01323	-0.634639	-1.042585	-1.280402	-1.04129	-2.38761	-1.496378	-1.436042	-0.924913	-1.157201	-0.324419	-0.316737	-0.038627
0.024159	-0.059295	-0.46443	-0.027204	-0.60106	-0.905979	-1.237196	-0.883036	-2.457777	-1.724993	-1.584374	-1.162473	-1.007354	-0.126893	-0.201206	0.08905
0.037752	-0.026398	-0.351644	0.043668	-0.508788	-0.637993	-1.083462	-0.56607	-2.265163	-1.418795	-1.452881	-0.921225	-1.341492	-0.567724	-0.392169	-0.425697
0.008482	-0.140256	-0.411365	0.02476	-0.630026	-0.920963	-1.220012	-0.801853	-2.383247	-1.725037	-1.653772	-1.332502	-1.155963	-0.305948	-0.253561	-0.133353
0.043376	0.180773	-0.298889	0.114542	-0.654404	-0.9516	-1.253193	-0.880958	-2.366257	-1.636046	-1.6215	-1.286211	-1.093413	-0.398173	-0.205699	-0.225354
-0.129907	-0.427375	-0.496351	-0.003047	-0.450028	-0.506487	-0.953631	-0.292488	-2.352321	-1.68836	-1.613522	-1.298868	-0.892999	-0.108257	-0.048716	0.066588
0.03325	0.453854	-0.098831	0.285995	-0.397362	-0.435622	-0.919214	-0.165186	-1.997914	-1.14684	-1.368958	-0.748821	-0.988241	-0.144492	-0.123657	-0.087873
-0.252089	-0.447861	-0.575451	-0.050223	-0.503517	-0.668024	-1.03885	-0.462407	-1.80802	-0.741003	-1.117848	-0.439187	-1.442411	-0.767371	-0.475431	-0.907195
0.03325	0.486376	-0.071881	0.32398	-0.50702	-0.752802	-1.040469	-0.468209	-2.14128	-1.510259	-1.541378	-1.173483	-0.768617	0.119032	0.0089	0.210024
-0.250503	-0.386296	-0.542293	-0.026774	-0.406143	-0.474622	-0.856448	-0.128995	-2.089993	-1.550846	-1.548362	-1.210661	-1.210095	-0.495048	-0.264543	-0.465965
-0.035589	0.342739	-0.204379	0.228941	-0.719248	-1.198267	-1.245812	-0.93727	-1.650906	-0.687223	-1.107623	-0.335828	-0.899076	-0.071997	-0.079888	-0.174181
-0.117667	-0.086163	-0.417068	0.062941	-0.448766	-0.613996	-0.903755	-0.22068	-2.124538	-1.693212	-1.633688	-1.365702	-1.004184	-0.249609	-0.068973	-0.245544
0.006041	0.353053	-0.151903	0.261888	-0.494786	-0.737359	-0.978104	-0.39655	-1.990195	-1.498124	-1.494296	-1.092064	-0.887018	-0.131532	0.049582	-0.059791
-0.128097	-0.106511	-0.476688	0.048708	-0.761307	-1.258816	-1.244398	-0.992027	-1.765524	-0.924397	-1.204284	-0.608117	-1.257972	-0.653357	-0.202898	-0.740456
0.02405	0.301399	-0.278705	0.189978	-0.599424	-0.929245	-1.084448	-0.581744	-1.900442	-1.355338	-1.397792	-0.988156	-0.804242	-0.013124	0.102812	-0.075543
-0.021397	0.060077	-0.371236	0.086215	-0.637621	-0.982279	-1.118015	-0.704549	-1.494642	-0.343819	-0.858631	-0.097427	-0.865918	-0.087737	0.077857	-0.192185
0.015466	0.216674	-0.338063	0.072163	-0.737233	-1.203216	-1.262476	-1.029055	-1.650906	-0.84525	-1.069761	-0.525032	-0.997423	-0.218893	0.026248	-0.311422
-0.000885	-0.012901	-0.43707	0.001374	-0.687938	-1.149445	-1.188525	-0.855694	-1.692303	-0.937177	-1.118954	-0.636104	-0.962201	-0.193141	0.06069	-0.308902
-0.057733	-0.428293	-0.660932	-0.167724	-0.562792	-0.882893	-1.010186	-0.458512	-1.581171	-0.739563	-0.972677	-0.452744	-1.292244	-0.759847	-0.232954	-1.000229
0.121078	-0.043785	-0.482833	-0.007763	-0.72414	-1.211536	-1.195744	-0.87269	-1.737465	-1.094944	-1.108427	-0.7748	-1.085601	-0.416668	-0.067917	-0.595398
0.051276	-0.408863	-0.601739	-0.092676	-0.56933	-0.845147	-0.979914	-0.380102	-1.935204	-1.515697	-1.336623	-1.175807	-1.421886	-0.787095	-0.287568	-1.063176
0.290318	0.166369	-0.323443	0.153232	-0.627091	-0.976123	-1.042666	-0.520082	-1.786005	-1.308056	-1.19159	-0.966403	-1.579803	-1.051818	-0.396646	-1.284269
0.27398	-0.180094	-0.489375	0.058363	-0.408484	-0.513262	-0.776278	0.023568	-1.393741	-0.512179	-0.74579	-0.26552	-1.035523	-0.245256	0.050091	-0.299241
0.406519	0.272085	-0.283262	0.191426	-0.604563	-0.854708	-0.96862	-0.43217	-1.803662	-1.452373	-1.220018	-1.057584	-0.952264	-0.06048	0.116351	-0.206559
0.316877	-0.033424	-0.403087	0.091523	-0.596315	-0.831221	-0.951728	-0.448452	-1.751264	-1.371949	-1.213736	-1.007523	-0.694866	0.298116	0.274729	0.286768
0.529245	0.463671	-0.149145	0.363615	-0.603887	-0.925432	-1.013512	-0.536878	-1.56933	-1.069003	-1.034217	-0.642653	-1.070452	-0.215445	0.043715	-0.287814
0.198247	-0.52677	-0.682205	-0.118366	-0.456098	-0.631236	-0.800614	-0.093922	-1.555177	-1.069672	-1.056896	-0.680144	-1.167082	-0.299641	0.025707	-0.378796
0.384995	0.123752	-0.436554	0.119472	-0.645603	-0.979752	-0.979789	-0.527022	-1.527052	-0.965235	-0.99264	-0.555081	-0.938502	0.036351	0.184072	0.046072
0.306389	-0.368651	-0.615729	0.019588	-0.548746	-0.778682	-0.826458	-0.251969	-1.905283	-1.723725	-1.441066	-1.320674	-1.111631	-0.211922	0.066393	-0.20497
0.228313	-0.264713	-0.602738	-0.014073	-0.628012	-1.021518	-1.003102	-0.544421	-1.670956	-1.13463	-1.088953	-0.748161	-0.82665	0.190562	0.291779	0.14163
0.222062	-0.399307	-0.688421	-0.065887	-0.624326	-0.941202	-0.951192	-0.517174	-1.590357	-1.01712	-1.04085	-0.657492	-0.861551	0.245646	0.258407	0.167584
0.293697	-0.242145	-0.608736	0.04837	-0.645603	-1.0252	-1.05487	-0.669827	-1.551677	-0.898322	-0.964854	-0.593224	-0.925729	0.104342	0.241454	0.120695
0.08996	-0.637221	-0.866679	-0.198748	-0.473452	-0.661308	-0.795452	-0.151044	-1.435374	-0.619168	-0.773824	-0.220215	-0.96679	0.042025	0.242882	0.043622
0.203201	-0.252639	-0.69468	-0.079605	-0.650318	-0.97734	-1.013512	-0.636887	-1.642883	-0.963565	-1.012623	-0.72567	-0.931246	0.146078	0.258407	0.209063
0.310431	-0.231332	-0.648124	0.034412	-0.487106	-0.699358	-0.851607	-0.278928	-1.803662	-1.382644	-1.201995	-1.051498	-1.084788	-0.144492	0.14953	-0.156708
0.071391	-0.799715	-0.997416	-0.2266	-0.579079	-0.823402	-0.938499	-0.471298	-1.813969	-1.394817	-1.30352	-1.140422	-0.980932	0.073222	0.18274	0.030731
0.190057	-0.417859	-0.661408	0.029636	-0.549803	-0.792628	-0.906122	-0.334413	-1.688402	-1.121387	-1.159049	-0.845895	-1.222594	-0.282068	0.024568	-0.354203
0.082437	-0.767056	-0.852173	-0.140819	-0.558442	-0.823402	-0.917904	-0.386838	-1.726865	-1.200131	-1.180531	-0.950918	-1.387613	-0.41287	-0.068197	-0.552602
0.23225	-0.355796	-0.6484	0.076909	-0.63826	-0.938316	-0.946593	-0.465246	-1.653502	-1.057183	-1.04085	-0.702837	-1.497083	-0.599987	-0.156441	-0.726275
0.076562	-0.859617	-0.944111	-0.183485	-0.755545	-1.15236	-1.066787	-0.768821	-1.509473	-0.699112	-0.860521	-0.422559	-1.215734	-0.152664	0.097214	-0.141706
0.248711	-0.272639	-0.654547	0.044088	-0.634886	-0.982936	-0.971661	-0.447548	-1.520096	-0.791992	-0.936245	-0.620162	-1.291561	-0.315304	-0.016042	-0.368766
0.18312	-0.458492	-0.641487	0.043959	-0.583953	-0.891646	-0.881944	-0.371573	-1.670956	-1.01712	-1.061857	-0.909747	-1.36021	-0.456318	-0.049061	-0.513809
0.219418	-0.251973	-0.569026	0.138849	-0.629668	-0.923296	-0.939964	-0.5463	-1.667376	-1.029317	-1.098885	-0.830853	-1.353303	-0.388579	-0.093758	-0.498408
0.10487	-0.764551	-0.831881	-0.069548	-0.47842	-0.684063	-0.721731	-0.136184	-1.56234	-0.884565	-1.038786	-0.658436	-1.181255	-0.194483	0.01818	-0.313742
0.135189	-0.406795	-0.601869	0.115183	-0.600438	-0.961716	-0.928197	-0.465246	-1.712844	-1.094944	-1.168892	-0.890853	-1.236326	-0.280238	-0.014902	-0.365758
-0.048945	-0.998509	-0.93082	-0.174302	-0.402804	-0.528809	-0.656674	0.023036	-1.534422	-0.72714	-0.935209	-0.536095	-0.932563	0.195806	0.235091	0.247975
0.165544	-0.540462	-0.720934	-0.041615	-0.506952	-0.723136	-0.779978	-0.201323	-1.53773	-0.818687	-1.022717	-0.552929	-1.174398	-0.031069	0.056463	-0.005838
0.027923	-1.0775	-0.969496	-0.309588	-0.473863	-0.668468	-0.682391	-0.116887	-1.747671	-1.15968	-1.221657	-0.988156	-1.160291	-0.125671	-0.014902	-0.1103
0.188973	-0.581019	-0.694337	-0.065001	-0.646185	-1.045528	-0.933347	-0.617477	-1.60089	-0.765814	-1.006213	-0.583391	-1.456083	-0.541405	-0.20832	-0.57853
0.176686	-0.519611	-0.608506	-0.041374	-0.578406	-0.877595	-0.872227	-0.474913	-1.712802	-1.042251	-1.199731	-0.798451	-1.319061	-0.282068	-0.076815	-0.273206
0.200039	-0.263157	-0.509231	0.044088	-0.730244	-1.196741	-1.055105	-0.935207	-1.824166	-1.133922	-1.24159	-0.959592	-1.263903	-0.213617	-0.082047	-0.218048
0.157943	-0.458214	-0.542315	0.025162	-0.667461	-1.074767	-0.914278	-0.685432	-1.921291	-1.470419	-1.402649	-1.199457	-1.695178	-0.796632	-0.357561	-0.853723
0.181895	-0.283577	-0.515861	0.039327	-0.562962	-0.944687	-0.84959	-0.476221	-2.093632	-1.674808	-1.491727	-1.427077	-1.572179	-0.627854	-0.312975	-0.762177
0.180506	-0.611586	-0.667517	-0.092603	-0.466517	-0.760399	-0.697767	-0.230163	-2.282349	-2.16901	-1.756514	-1.804227	-1.483416	-0.574234	-0.293915	-0.723145
0.192102	-0.335596	-0.476241	0.020504	-0.718186	-1.309824	-1.06166	-0.91929	-2.045269	-1.610613	-1.442955	-1.248826	-1.565334	-0.776627	-0.332969	-0.814779
0.173961	-0.611586	-0.588508	-0.050205	-0.462897	-0.737298	-0.769463	-0.285228	-2.343709	-2.283409	-1.830125	-1.922691	-0.968981	0.013244	0.143853	0.095057
0.16817	-0.243534	-0.423357	0.029994	-0.722628	-1.248826	-1.090143	-1.00525	-1.907343	-1.237766	-1.315589	-1.046244	-1.483417	-0.672423	-0.235812	-0.684232
-0.016049	-0.885222	-0.779105	-0.228686	-0.648432	-1.095902	-1.000301	-0.795134	-2.035014	-1.559739	-1.475449	-1.324872	-1.298768	-0.404323	-0.098224	-0.394588
0.142704	-0.192954	-0.423629	0.053402	-0.515183	-0.837211	-0.823974	-0.459489	-2.10021	-1.827282	-1.585857	-1.532888	-0.85157	0.166353	0.18955	0.254902
-0.045571	-0.824586	-0.733327	-0.181952	-0.431242	-0.66116	-0.720202	-0.233451	-2.062425	-1.636252	-1.415941	-1.369568	-0.832149	0.248564	0.20052	0.251604
0.048852	-0.376798	-0.489428	-0.00304	-0.656205	-1.141782	-1.054386	-0.88443	-2.124538	-1.816069	-1.475449	-1.397825	-0.789815	0.296334	0.281002	0.322203
-0.06293	-0.865294	-0.726937	-0.14459	-0.609838	-1.081538	-0.966551	-0.682542	-2.110709	-1.853871	-1.597257	-1.53988	-0.954757	0.107078	0.143853	0.139116
0.037929	-0.406922	-0.496015	0.053606	-0.496734	-0.821693	-0.783105	-0.34513	-1.848614	-1.315484	-1.282777	-1.043497	-1.147009	-0.148617	0.014521	-0.084104
0.037929	-0.48934	-0.489375	0.081991	-0.57082	-1.029378	-0.936329	-0.714235	-1.800012	-1.199171	-1.272283	-0.921225	-1.298407	-0.332839	-0.129927	-0.390787
0.091403	-0.263823	-0.30983	0.272559	-0.54155	-0.952416	-0.883524	-0.563913	-2.176972	-2.047337	-1.705257	-1.642579	-1.592737	-0.752782	-0.332969	-0.880002
-0.032844	-0.875065	-0.608736	0.058128	-0.452781	-0.799244	-0.778045	-0.430954	-1.949132	-1.522489	-1.455401	-1.188452	-1.551654	-0.700005	-0.30125	-0.695869
0.080407	-0.437811	-0.376497	0.234262	-0.675143	-1.258816	-1.080801	-1.072357	-1.841612	-1.328578	-1.369931	-0.937648	-1.578888	-0.678956	-0.321258	-0.669699
-0.091914	-0.865294	-0.602368	-0.027276	-0.532163	-1.037743	-0.873726	-0.678822	-2.29168	-2.228848	-1.944613	-1.890013	-1.326038	-0.334451	-0.125975	-0.365758
0.078451	-0.244479	-0.303183	0.191426	-0.540797	-1.006648	-0.863433	-0.714235	-1.942166	-1.470419	-1.534597	-1.192803	-1.49706	-0.583259	-0.256977	-0.656634
-0.045571	-0.571105	-0.356469	0.086758	-0.477995	-0.967887	-0.875255	-0.675845	-2.228743	-2.021249	-1.873617	-1.707085	-1.633266	-0.690583	-0.322291	-0.775214
0.118017	-0.010654	-0.136968	0.238778	-0.491675	-0.982279	-0.818861	-0.670259	-2.14531	-1.852973	-1.80768	-1.543706	-1.071995	0.065396	0.07631	0.046072
-0.147225	-0.743767	-0.44299	-0.021954	-0.407944	-0.82167	-0.716612	-0.371404	-2.055763	-1.482708	-1.623113	-1.227182	-1.673896	-0.831073	-0.388501	-0.906664
0.03432	-0.175521	-0.197298	0.148394	-0.446481	-0.951425	-0.817146	-0.58495	-2.000507	-1.380152	-1.537336	-1.140976	-1.148659	-0.061675	0.073223	-0.038627
-0.149258	-0.774612	-0.535924	-0.120764	-0.451672	-0.951447	-0.808729	-0.528395	-2.233986	-1.814456	-1.817055	-1.652329	-1.497498	-0.632737	-0.182771	-0.713488
-0.091449	-0.522308	-0.430522	-0.069122	-0.674288	-1.336483	-1.065754	-1.015856	-2.089854	-1.444661	-1.531159	-1.219219	-1.511009	-0.739227	-0.182771	-0.791527
-0.237675	-1.154897	-0.765848	-0.322125	-0.590756	-1.193641	-1.011839	-0.857401	-2.321916	-1.901825	-1.777276	-1.647683	-1.020744	-0.083472	0.173045	-0.088151
-0.180031	-0.744153	-0.496629	-0.163	-0.570372	-1.201199	-1.011839	-0.806043	-2.06245	-1.521285	-1.494024	-1.219219	-1.585988	-0.858845	-0.264543	-1.05316
-0.263395	-1.115055	-0.746356	-0.32177	-0.521585	-1.073104	-0.890376	-0.597115	-2.202732	-1.763011	-1.61488	-1.499522	-1.321888	-0.481655	-0.013113	-0.538213
-0.106361	-0.513464	-0.45793	-0.11644	-0.630026	-1.223663	-1.015235	-0.784835	-2.37946	-2.027429	-1.703596	-1.766082	-1.014047	-0.160687	0.216471	-0.103925
-0.281161	-1.025355	-0.694141	-0.349682	-0.733616	-1.403885	-1.15974	-1.097551	-2.250441	-1.914614	-1.593556	-1.579019	-1.206198	-0.471523	0.005453	-0.590808
-0.25858	-0.755369	-0.583133	-0.28458	-0.76395	-1.455574	-1.199835	-1.120086	-2.386254	-2.153164	-1.75109	-1.921821	-1.082695	-0.275355	0.124081	-0.301562
-0.368981	-1.244035	-0.922239	-0.460999	-0.693026	-1.283693	-1.043881	-0.892409	-2.37943	-2.064753	-1.666151	-1.862893	-0.994943	-0.194134	0.161166	-0.226398
-0.24644	-0.714895	-0.635096	-0.242554	-0.547786	-0.982928	-0.922913	-0.513191	-2.335378	-2.140518	-1.677371	-1.900577	-1.097761	-0.438509	0.075206	-0.565778
-0.420501	-1.273834	-0.86372	-0.433282	-0.66469	-1.15629	-1.008707	-0.754599	-2.396352	-2.302469	-1.776836	-2.049772	-1.035006	-0.295742	0.089429	-0.432689
-0.288479	-0.866478	-0.661689	-0.242727	-0.485806	-0.877453	-0.814914	-0.298224	-2.216472	-1.813585	-1.493229	-1.650468	-1.362121	-0.75121	-0.137425	-0.871921
-0.310208	-0.96546	-0.726676	-0.30781	-0.526909	-0.907317	-0.851981	-0.406721	-2.342168	-2.178494	-1.635499	-1.850701	-1.443991	-0.879315	-0.248878	-1.027855
-0.224783	-0.665346	-0.550271	-0.149516	-0.697614	-1.231212	-1.04563	-0.817616	-2.494309	-2.525293	-1.813171	-2.177112	-1.417718	-0.797635	-0.264347	-1.004077
-0.271607	-0.735557	-0.556758	-0.200867	-0.598207	-1.110992	-0.969939	-0.559747	-2.090423	-1.598384	-1.313349	-1.356141	-1.215221	-0.590439	-0.144237	-0.762702
-0.160016	-0.482497	-0.391834	-0.050926	-0.610951	-1.073629	-0.944845	-0.593196	-2.169068	-1.826513	-1.455945	-1.563416	-1.193606	-0.58798	-0.174924	-0.82506
-0.207919	-0.432909	-0.30676	-0.018755	-0.544397	-1.050901	-0.878992	-0.432958	-2.165455	-1.901825	-1.508965	-1.568428	-1.438855	-0.811879	-0.344462	-1.08407
-0.167617	-0.322663	-0.307546	0.004357	-0.623688	-1.193827	-0.991842	-0.639718	-2.277697	-2.177779	-1.677371	-1.918582	-1.172804	-0.451282	-0.083609	-0.565778
-0.294985	-0.886996	-0.733894	-0.289423	-0.511424	-0.983353	-0.857002	-0.333897	-2.365883	-2.501279	-1.808298	-2.145367	-0.949502	-0.24722	0.022498	-0.416633
-0.184466	-0.514758	-0.485583	-0.145408	-0.699337	-1.440545	-1.052421	-0.831868	-2.090423	-1.876671	-1.508773	-1.634525	-1.104429	-0.497081	-0.097697	-0.658212
-0.313644	-0.936961	-0.741155	-0.373542	-0.58006	-1.240263	-0.934821	-0.582157	-2.199725	-2.214473	-1.712942	-1.966967	-1.431073	-0.896871	-0.376704	-1.096517
-0.232326	-0.514758	-0.479844	-0.206816	-0.576772	-1.136889	-0.860883	-0.42059	-2.145794	-1.914628	-1.513591	-1.774569	-1.234374	-0.773902	-0.275445	-0.957985
-0.262314	-0.516222	-0.493454	-0.207192	-0.677206	-1.286381	-0.982421	-0.737841	-1.938151	-1.421912	-1.281905	-1.387893	-1.216106	-0.769055	-0.292925	-0.950482
-0.221125	-0.169072	-0.355243	-0.160631	-0.747274	-1.389361	-1.089661	-0.888494	-2.312089	-2.227007	-1.676053	-2.040121	-1.066529	-0.512828	-0.157819	-0.795179
-0.285674	-0.454122	-0.499871	-0.216341	-0.603033	-1.077606	-0.893821	-0.444215	-2.201215	-2.02753	-1.497893	-1.797595	-0.691794	0.114155	0.123707	-0.049069
-0.139584	-0.117672	-0.308405	-0.057186	-0.797219	-1.433754	-1.154921	-0.976417	-2.061379	-1.776059	-1.382089	-1.594951	-0.965126	-0.297279	-0.068849	-0.549649
-0.354679	-0.767101	-0.689284	-0.364156	-0.713269	-1.276803	-1.034218	-0.697014	-2.041289	-1.826952	-1.455832	-1.613511	-0.916422	-0.089932	-0.016159	-0.339155
-0.23793	-0.473872	-0.519145	-0.169062	-0.878521	-1.536997	-1.216526	-1.093942	-1.946281	-1.651404	-1.345471	-1.42954	-0.67408	0.207472	0.154744	0.033534
-0.179861	-0.465518	-0.460571	-0.094392	-0.877987	-1.514797	-1.219831	-1.130928	-2.184011	-2.164404	-1.6183	-1.888865	-1.00714	-0.230648	-0.044623	-0.37962
-0.164145	-0.406682	-0.409319	-0.025534	-0.712635	-1.163998	-0.956738	-0.600663	-1.893817	-1.58728	-1.265984	-1.231703	-1.026906	-0.22753	-0.095152	-0.428994
-0.193167	-0.377366	-0.317802	-0.011808	-0.824673	-1.395852	-1.086043	-0.866821	-1.913971	-1.700447	-1.355722	-1.332853	-1.412988	-0.832103	-0.441385	-1.147984
-0.196688	-0.273462	-0.276235	-0.001592	-0.95233	-1.692415	-1.288227	-1.31514	-1.934157	-1.662294	-1.403146	-1.414903	-1.42695	-0.854411	-0.461281	-1.186922
-0.242584	-0.414714	-0.407538	-0.086051	-0.821846	-1.43348	-1.119613	-1.031613	-2.097862	-1.964685	-1.566329	-1.718932	-1.608672	-1.074235	-0.607317	-1.428512
-0.323105	-0.706997	-0.479844	-0.137319	-0.806499	-1.382446	-1.111433	-0.992786	-2.267676	-2.327724	-1.776065	-2.028564	-1.008403	-0.260601	-0.117444	-0.47609
-0.316649	-0.53588	-0.446929	-0.188497	-0.656493	-1.1062	-0.926726	-0.669346	-2.156288	-2.127155	-1.707441	-1.870629	-1.440171	-0.878924	-0.467347	-1.163981
-0.380261	-0.656619	-0.525575	-0.239967	-0.674657	-1.21208	-0.987409	-0.756186	-2.440234	-2.699097	-2.036232	-2.451119	-1.480554	-1.065988	-0.53739	-1.329665
-0.317476	-0.457432	-0.369002	-0.120038	-0.921354	-1.640682	-1.248196	-1.346802	-2.372964	-2.424976	-1.889765	-2.254877	-1.31315	-0.821445	-0.386864	-1.131677
-0.316649	-0.234238	-0.26981	-0.035775	-0.822468	-1.485719	-1.183108	-1.190765	-2.369864	-2.387176	-1.920317	-2.248729	-0.963916	-0.320506	-0.113343	-0.525082
-0.51912	-0.866478	-0.656079	-0.258617	-0.79522	-1.479147	-1.191581	-1.176897	-2.254745	-2.226639	-1.759633	-1.959273	-1.095144	-0.555715	-0.244403	-0.785844
-0.439607	-0.476998	-0.447738	-0.08762	-0.738097	-1.368356	-1.101469	-0.98363	-2.106656	-1.878595	-1.602595	-1.714642	-1.101739	-0.618497	-0.238351	-0.798062
-0.427596	-0.566827	-0.564831	-0.142339	-0.745326	-1.352713	-1.126395	-1.029476	-2.295644	-2.461191	-1.961969	-2.251731	-1.635157	-1.346085	-0.664981	-1.656855
-0.364148	-0.293119	-0.401107	-0.039788	-0.789876	-1.418756	-1.168111	-1.110095	-2.019983	-1.939608	-1.60824	-1.695067	-1.304772	-0.866644	-0.417124	-1.229472
-0.41155	-0.426264	-0.408393	-0.049467	-0.731954	-1.329457	-1.134616	-0.980622	-1.935495	-1.902612	-1.571272	-1.690083	-0.920665	-0.341835	-0.149805	-0.546518
-0.261324	0.059114	-0.152141	0.165698	-0.633269	-1.136226	-0.997389	-0.71197	-1.767293	-1.663814	-1.413738	-1.500583	-0.901953	-0.367697	-0.13961	-0.525082
-0.444483	-0.606143	-0.505587	-0.061787	-0.57429	-1.030633	-0.909797	-0.552904	-1.400975	-1.040044	-0.994969	-0.843802	-0.76578	-0.167052	-0.050675	-0.411331
-0.25383	0.010254	-0.184198	0.1297	-0.59504	-1.082878	-0.924806	-0.650934	-1.409846	-1.000652	-0.967949	-0.85568	-0.862308	-0.274041	-0.153731	-0.580817
-0.403568	-0.697172	-0.564831	-0.122372	-0.644495	-1.120332	-0.934821	-0.686068	-1.571588	-1.446917	-1.159501	-1.294956	-0.834566	-0.210536	-0.095152	-0.411331
-0.315109	-0.322663	-0.334201	0.04213	-0.774736	-1.455376	-1.166393	-1.114862	-1.632601	-1.661825	-1.255003	-1.499522	-1.064471	-0.59812	-0.303323	-0.817185
-0.443112	-0.796622	-0.512031	-0.089425	-0.720676	-1.283813	-1.020278	-0.894631	-1.956457	-2.265435	-1.556581	-1.992904	-0.646123	0.061602	0.038753	-0.159249
-0.315109	-0.342398	-0.261467	0.060616	-0.762089	-1.380913	-1.132898	-1.061652	-1.842977	-2.1904	-1.535558	-1.98226	-1.058844	-0.5374	-0.258891	-0.703416
-0.465188	-0.945601	-0.615953	-0.172887	-0.662485	-1.163998	-0.986554	-0.726706	-1.832322	-2.153164	-1.530507	-1.903877	-0.880854	-0.33747	-0.188225	-0.497192
-0.488457	-0.795767	-0.635788	-0.224194	-0.827092	-1.530036	-1.220436	-1.233201	-1.676293	-1.813672	-1.361381	-1.674736	-1.241804	-0.832103	-0.418174	-0.893832
-0.679066	-1.184556	-0.798833	-0.326539	-0.633679	-1.186917	-0.976455	-0.680355	-1.687084	-1.864055	-1.403522	-1.671712	-1.071122	-0.524726	-0.283281	-0.571254
-0.524156	-0.413128	-0.373728	-0.051809	-0.906641	-1.692415	-1.323944	-1.458004	-1.437261	-1.369604	-1.106008	-1.153242	-1.110275	-0.606012	-0.448742	-0.785452
-0.62811	-0.725663	-0.517886	-0.158999	-0.791982	-1.507413	-1.256808	-1.216008	-1.814851	-2.090534	-1.530507	-1.903877	-1.309145	-0.904991	-0.598247	-0.98079
-0.617971	-0.473872	-0.452646	-0.075598	-0.72933	-1.358753	-1.15974	-0.971379	-1.945928	-2.277265	-1.582908	-2.01073	-1.112914	-0.613145	-0.543463	-0.752791
-0.704583	-0.70497	-0.603485	-0.15033	-0.870498	-1.610938	-1.326876	-1.337579	-1.915683	-2.214167	-1.529634	-1.96214	-1.167883	-0.781604	-0.595175	-0.869097
-0.922029	-1.194525	-0.922558	-0.442565	-0.779345	-1.477753	-1.225009	-1.121672	-2.025097	-2.425742	-1.650811	-2.19474	-1.331257	-0.993662	-0.761779	-1.112642
-0.899688	-0.916517	-0.792995	-0.308395	-0.635768	-1.188256	-1.013726	-0.693624	-1.808989	-1.876863	-1.334495	-1.705596	-1.222729	-0.826453	-0.717937	-0.984933
-0.843395	-0.434403	-0.506293	-0.127336	-0.841296	-1.574007	-1.280045	-1.241222	-1.980594	-2.276649	-1.556325	-2.028564	-1.269986	-0.899004	-0.87027	-1.124992
-0.974133	-0.63571	-0.5584	-0.169062	-0.936274	-1.78783	-1.391732	-1.477099	-2.195916	-2.771541	-1.782153	-2.444479	-1.195321	-0.866644	-0.85818	-1.048847
-1.06972	-0.825497	-0.662068	-0.256911	-0.890565	-1.677562	-1.390283	-1.417998	-2.359289	-2.955073	-1.897255	-2.591331	-0.963916	-0.426831	-0.733064	-0.589719
-0.944411	-0.410469	-0.451433	-0.079044	-0.844239	-1.552028	-1.335495	-1.368008	-2.202732	-2.708749	-1.808298	-2.391526	-1.063522	-0.600539	-0.805604	-0.737844
-1.137101	-0.945271	-0.766021	-0.317135	-0.728722	-1.366034	-1.144611	-0.978464	-2.024707	-2.31509	-1.641586	-2.124281	-1.478341	-1.135004	-1.145332	-1.376392
-1.153906	-0.975212	-0.752863	-0.312462	-0.791393	-1.529595	-1.226593	-1.133243	-1.742741	-1.751029	-1.361091	-1.565849	-1.504485	-1.183515	-1.212323	-1.399784
-1.05226	-0.70497	-0.530351	-0.130563	-0.719493	-1.418165	-1.169836	-1.112422	-1.928581	-2.014846	-1.493458	-1.797748	-1.450321	-1.090006	-1.168701	-1.298163
-1.080281	-0.623766	-0.510416	-0.172561	-0.880094	-1.722977	-1.31239	-1.439402	-2.001008	-2.263771	-1.608917	-1.923055	-1.484001	-1.131044	-1.142439	-1.284708
-1.238408	-1.383033	-0.922283	-0.465759	-0.872005	-1.730013	-1.334064	-1.464315	-2.103641	-2.400663	-1.745765	-2.124247	-1.505121	-1.143756	-1.125062	-1.235372
-1.017994	-0.745459	-0.641895	-0.261288	-0.73106	-1.477858	-1.139849	-1.054811	-1.970077	-2.039773	-1.587943	-1.802667	-1.348696	-0.8708	-0.934651	-0.939683
-1.130874	-1.224304	-0.954757	-0.498216	-0.7513	-1.492825	-1.166732	-1.186611	-2.318655	-2.710145	-1.96063	-2.423271	-1.470842	-0.996548	-0.959112	-1.09348
-1.006165	-0.92535	-0.818139	-0.331073	-0.831128	-1.625947	-1.282042	-1.374511	-2.161752	-2.326857	-1.808769	-2.056979	-1.477563	-0.984822	-0.920237	-1.066994
-0.960287	-1.045207	-0.805053	-0.317115	-0.640452	-1.33618	-1.050577	-0.885354	-2.369756	-2.785909	-2.065427	-2.487002	-1.721121	-1.29941	-1.014321	-1.476094
-0.822898	-0.754157	-0.700458	-0.233194	-0.781669	-1.574076	-1.213359	-1.216008	-2.195916	-2.264128	-1.782153	-1.975699	-1.397139	-0.904991	-0.710999	-1.030751
-0.719953	-0.945118	-0.824643	-0.289223	-0.78974	-1.625947	-1.213359	-1.156243	-2.240228	-2.363791	-1.891934	-2.106495	-1.416731	-0.838409	-0.638407	-0.989992
-0.680444	-0.885602	-0.863915	-0.33589	-0.745411	-1.418507	-1.109381	-0.923308	-2.233412	-2.264681	-1.798116	-2.007391	-1.417718	-0.904991	-0.555875	-0.966477
-0.610637	-1.035211	-0.896284	-0.345059	-0.791393	-1.50754	-1.169692	-0.97448	-2.018296	-1.876671	-1.566951	-1.555312	-1.301216	-0.691802	-0.367506	-0.718604
-0.518501	-0.684296	-0.785895	-0.321914	-0.790822	-1.477753	-1.184755	-0.994789	-2.155099	-2.039801	-1.629873	-1.695067	-1.438278	-0.92717	-0.388976	-1.005746
-0.610637	-1.144908	-0.980614	-0.470153	-0.853896	-1.647818	-1.208142	-1.054939	-2.114412	-1.964786	-1.624306	-1.624014	-1.219581	-0.542619	-0.218011	-0.641016
-0.257741	-0.278251	-0.498494	-0.075241	-0.90715	-1.736266	-1.318334	-1.234474	-2.131614	-1.826952	-1.597858	-1.571588	-1.221047	-0.527308	-0.136324	-0.683168
-0.487932	-1.26529	-0.97418	-0.442494	-0.63977	-1.195611	-1.022374	-0.542313	-2.056581	-1.839412	-1.597858	-1.471325	-1.166982	-0.44396	-0.077463	-0.735443
-0.175171	-0.288223	-0.452646	-0.042576	-0.866489	-1.633107	-1.29324	-1.100885	-2.083647	-1.751029	-1.540215	-1.372805	-0.700607	0.274324	0.267841	0.099667
-0.325759	-1.04535	-0.850816	-0.372955	-0.693906	-1.254995	-1.107838	-0.702794	-2.151908	-1.876863	-1.608431	-1.492269	-0.926225	-0.042894	0.179668	-0.198172
-0.092295	-0.430437	-0.557231	-0.046849	-0.820658	-1.447961	-1.20649	-0.927333	-2.056581	-1.751646	-1.576738	-1.379299	-1.504775	-0.91164	-0.318443	-1.271336
-0.318216	-1.196103	-1.006732	-0.428737	-0.852811	-1.589118	-1.290109	-1.114862	-2.48112	-2.63748	-2.048033	-2.226485	-0.91851	-0.03968	0.187822	-0.207681
-0.067827	-0.419428	-0.563248	-0.130563	-0.864889	-1.626459	-1.298679	-1.136059	-2.321916	-2.228338	-1.913231	-1.88258	-1.088622	-0.216256	0.066499	-0.38749
-0.300489	-1.266122	-1.006961	-0.41035	-0.840744	-1.559325	-1.268428	-1.008392	-1.9942	-1.509646	-1.551015	-1.273837	-1.306915	-0.525915	-0.082998	-0.660899
-0.019671	-0.337155	-0.516554	-0.041033	-0.884583	-1.671415	-1.302266	-1.217361	-1.92548	-1.433399	-1.577321	-1.212603	-1.30739	-0.527965	-0.090819	-0.765966
-0.224912	-0.995565	-0.844206	-0.331135	-0.603519	-1.148826	-0.956279	-0.476069	-2.216375	-2.027429	-1.881299	-1.668838	-1.57891	-0.843961	-0.303252	-1.076413
-0.097147	-0.68313	-0.641606	-0.144512	-0.88908	-1.744971	-1.313832	-1.170668	-1.825503	-1.125801	-1.450899	-0.917443	-1.572152	-0.87503	-0.303252	-1.089305
-0.043351	-0.489846	-0.516554	-0.078694	-0.839698	-1.566951	-1.218406	-1.045514	-1.883883	-1.279406	-1.545942	-1.061923	-1.56612	-0.773482	-0.267434	-0.922734
-0.165718	-0.804281	-0.746196	-0.242536	-0.720075	-1.313735	-1.080832	-0.697014	-2.011027	-1.445217	-1.63052	-1.238145	-1.983265	-1.370697	-0.523579	-1.578214
-0.207105	-0.955472	-0.791975	-0.3218	-0.724698	-1.366034	-1.107694	-0.706251	-2.130971	-1.800988	-1.793265	-1.502235	-1.734656	-1.01432	-0.349476	-1.270458
-0.084155	-0.733469	-0.68742	-0.167794	-0.712021	-1.29141	-1.03712	-0.708146	-2.397174	-2.267553	-2.070777	-2.017861	-1.546041	-0.74279	-0.188557	-0.910012
-0.112784	-0.652289	-0.706982	-0.237859	-0.657824	-1.253854	-1.047203	-0.628474	-2.230032	-1.927029	-1.891934	-1.690028	-1.768282	-1.004015	-0.321936	-1.180066
-0.107053	-0.854777	-0.844174	-0.279876	-0.741389	-1.440496	-1.11777	-0.780385	-2.288042	-1.977589	-1.903142	-1.735658	-1.613324	-0.804249	-0.160678	-0.973753
0.109592	-0.194141	-0.471444	-0.014129	-0.675844	-1.358753	-1.065733	-0.708146	-2.572861	-2.477267	-2.230053	-2.262158	-1.533112	-0.714265	-0.098657	-0.911349
-0.054018	-0.864726	-0.83115	-0.279939	-0.688544	-1.358972	-1.067472	-0.750581	-2.311817	-1.927286	-1.944627	-1.724977	-1.173633	-0.150555	0.175466	-0.23291
0.138118	-0.266905	-0.53784	-0.061787	-0.648494	-1.292659	-1.012374	-0.533164	-2.065981	-1.445217	-1.62486	-1.136244	-1.593559	-0.76513	-0.111037	-0.962061
-0.038482	-1.005223	-0.922377	-0.331595	-0.661211	-1.315141	-1.012374	-0.551469	-2.399853	-2.139991	-1.979579	-1.797748	-1.37774	-0.522265	0.070891	-0.63893
0.16194	-0.440433	-0.609939	-0.08979	-0.751932	-1.463421	-1.097834	-0.756186	-2.287855	-1.93965	-1.880816	-1.668838	-1.335854	-0.359568	0.138326	-0.518869
0.015466	-0.774189	-0.753286	-0.266328	-0.871064	-1.610967	-1.236518	-1.020294	-2.114412	-1.561408	-1.65008	-1.200196	-0.89411	0.18357	0.449345	0.161374
0.132418	-0.286936	-0.544301	-0.098996	-0.875069	-1.618331	-1.241521	-1.073297	-2.342168	-2.077475	-1.932402	-1.729523	-1.036884	0.027749	0.35244	0.006597
0.00975	-0.915057	-0.876757	-0.3033	-0.879074	-1.655214	-1.234858	-1.013188	-2.396352	-2.102316	-1.937234	-1.808321	-1.65403	-0.855693	-0.12963	-1.038512
0.162949	-0.419428	-0.596104	-0.070004	-0.746013	-1.373579	-1.094313	-0.732115	-2.223259	-1.813696	-1.817675	-1.589618	-1.249256	-0.305948	0.173504	-0.377175
-0.049066	-1.144908	-0.974127	-0.386811	-0.641077	-1.133912	-0.921049	-0.39432	-2.03871	-1.509012	-1.635183	-1.280812	-1.721618	-0.908651	-0.176165	-1.090375
0.144825	-0.380575	-0.603002	-0.126124	-0.868917	-1.559325	-1.178088	-0.945826	-1.9942	-1.318261	-1.498174	-1.095833	-1.431073	-0.48072	0.0727	-0.595398
0.051505	-0.854675	-0.759373	-0.214551	-0.716048	-1.328742	-1.075797	-0.671106	-2.270867	-1.93965	-1.844587	-1.735658	-1.500423	-0.646852	-0.022812	-0.833944
0.199243	-0.359381	-0.536848	-0.041394	-0.639846	-1.171231	-0.966363	-0.5039	-2.16859	-1.763046	-1.787933	-1.558725	-1.357798	-0.410721	0.10984	-0.558963
0.092446	-0.774612	-0.753037	-0.153966	-0.847767	-1.57442	-1.213359	-1.045514	-2.219855	-1.826369	-1.761748	-1.558725	-1.519318	-0.620641	-0.005205	-0.831094
0.204966	-0.430437	-0.517367	0.014673	-0.774159	-1.388424	-1.087567	-0.792957	-2.079638	-1.509012	-1.588231	-1.342338	-1.199512	-0.180338	0.278124	-0.253215
0.070388	-0.844639	-0.785522	-0.214551	-0.652565	-1.238791	-0.976455	-0.583913	-2.11399	-1.573916	-1.608656	-1.326701	-1.179475	-0.172571	0.278124	-0.334334
0.235597	-0.328191	-0.477931	-0.023064	-0.766111	-1.448056	-1.060705	-0.837116	-2.318655	-2.077888	-1.918561	-1.907329	-1.573154	-0.771762	0.002685	-0.897302
0.169644	-0.54324	-0.577141	-0.084477	-0.716655	-1.396143	-1.016976	-0.741345	-2.362561	-2.127155	-1.875513	-1.908001	-1.384394	-0.701983	0.091284	-0.848244
0.200211	-0.359381	-0.491439	-0.046849	-0.600848	-1.15037	-0.889035	-0.473035	-2.001008	-1.445969	-1.493229	-1.257077	-1.216106	-0.464103	0.239193	-0.593331
0.228867	-0.268286	-0.452646	-0.057186	-0.614302	-1.226087	-0.944845	-0.516186	-2.304836	-2.077262	-1.823361	-1.797748	-1.057824	-0.257878	0.379282	-0.370022
0.22212	-0.309558	-0.505587	-0.090192	-0.632509	-1.249923	-1.007377	-0.620508	-2.37267	-2.164718	-1.891429	-1.996819	-1.104429	-0.331687	0.327716	-0.498065
0.126716	-0.585159	-0.656625	-0.202234	-0.686624	-1.272459	-1.04107	-0.725677	-2.103985	-1.662294	-1.5983	-1.547273	-1.392397	-0.783937	0.112146	-1.007602
0.061097	-0.815579	-0.825511	-0.360071	-0.740633	-1.472362	-1.116418	-0.813712	-2.196134	-1.901893	-1.708219	-1.666112	-0.860995	-0.00955	0.444725	-0.155376
0.141682	-0.554289	-0.643793	-0.222178	-0.856948	-1.759099	-1.205098	-0.994893	-2.026705	-1.487948	-1.471583	-1.377502	-1.02464	-0.32741	0.273976	-0.58364
-0.040287	-1.065287	-0.935653	-0.466344	-0.81183	-1.67893	-1.20013	-0.942208	-2.088216	-1.67722	-1.60271	-1.638002	-0.961653	-0.334519	0.294564	-0.528326
0.142768	-0.512343	-0.688763	-0.290588	-0.754007	-1.473552	-1.126952	-0.800679	-1.978512	-1.536427	-1.403151	-1.372805	-1.175452	-0.635842	0.146888	-0.777551
-0.010967	-0.985349	-0.916124	-0.452203	-0.756598	-1.464585	-1.144965	-0.706228	-1.87227	-1.269485	-1.244524	-1.079417	-1.317224	-0.73672	0.018352	-0.928989
0.048746	-0.744153	-0.805546	-0.317808	-0.841868	-1.566874	-1.178107	-0.868391	-1.716888	-0.959217	-1.047509	-0.805836	-1.472144	-0.891203	-0.116127	-1.170216
-0.132142	-1.354356	-1.142255	-0.534788	-0.939789	-1.772866	-1.276597	-1.117062	-1.985252	-1.588313	-1.424239	-1.433706	-1.215221	-0.534859	0.050962	-0.70602
0.015466	-0.672545	-0.792029	-0.2753	-0.963927	-1.816931	-1.29166	-1.158578	-2.001678	-1.751646	-1.450759	-1.406679	-1.533607	-0.894859	-0.241421	-1.117554
0.014584	-0.428054	-0.668173	-0.201065	-0.806929	-1.514908	-1.070764	-0.70123	-2.066407	-1.839982	-1.445589	-1.446569	-1.458818	-0.819935	-0.195065	-0.974771
-0.049885	-0.662369	-0.889748	-0.382205	-0.781669	-1.440848	-1.005155	-0.675306	-1.939864	-1.715368	-1.397965	-1.261302	-1.261068	-0.552809	-0.055422	-0.516984
-0.096353	-0.895387	-0.961271	-0.386811	-0.891829	-1.662917	-1.220436	-1.096315	-2.107181	-2.015131	-1.656118	-1.674035	-1.164603	-0.369782	0.038156	-0.304441
-0.083414	-0.478651	-0.667549	-0.228531	-0.953466	-1.773969	-1.289275	-1.305877	-2.045254	-1.93953	-1.594262	-1.459676	-1.680557	-1.10936	-0.355692	-1.128058
-0.299949	-1.238966	-1.091761	-0.530653	-0.729551	-1.403265	-1.07273	-0.834013	-2.082997	-1.826513	-1.625556	-1.467724	-1.244402	-0.468493	-0.047153	-0.406112
-0.101324	-0.335596	-0.542696	-0.186638	-0.638694	-1.269124	-0.993324	-0.591406	-2.031552	-1.687938	-1.58322	-1.414903	-1.381288	-0.705054	-0.151507	-0.67039
-0.323408	-1.15722	-0.968236	-0.475077	-0.726487	-1.373756	-1.070817	-0.837116	-2.390314	-2.351245	-1.939903	-1.996819	-1.292985	-0.579368	-0.152962	-0.526727
-0.062129	-0.245604	-0.470934	-0.098344	-0.855374	-1.662604	-1.295765	-1.225237	-2.182277	-1.964685	-1.740874	-1.597515	-1.389441	-0.838409	-0.327533	-0.831094
-0.365048	-1.235087	-0.941844	-0.59918	-0.728134	-1.456083	-1.087619	-0.837116	-2.762225	-2.972077	-2.386681	-2.688884	-1.354541	-0.826439	-0.488897	-0.790405
-0.206478	-0.632438	-0.674097	-0.470252	-0.889555	-1.780054	-1.318887	-1.28482	-2.420278	-2.16517	-1.949367	-1.873395	-1.477563	-1.123369	-0.600227	-1.038512
-0.26048	-0.975212	-0.746356	-0.585629	-0.899122	-1.823968	-1.305219	-1.195242	-2.572107	-2.314286	-2.032084	-2.050606	-1.423442	-1.060797	-0.549735	-1.000229
-0.058241	-0.271567	-0.406756	-0.30626	-0.850464	-1.736276	-1.268428	-1.064115	-2.883754	-3.003449	-2.388264	-2.645092	-0.838594	-0.280538	-0.117441	-0.132293
-0.383877	-1.184642	-0.883327	-0.695513	-0.946455	-1.824198	-1.39973	-1.312108	-2.581611	-2.288418	-1.96803	-2.021437	-1.519318	-1.315906	-0.636291	-1.284708
-0.154382	-0.19078	-0.447738	-0.330381	-1.044916	-2.042225	-1.515922	-1.524138	-2.805631	-2.6694	-2.205348	-2.381773	-0.956129	-0.472923	-0.222395	-0.304521
-0.387451	-0.855872	-0.71549	-0.545857	-0.948917	-1.84662	-1.414369	-1.248523	-2.808712	-2.754379	-2.23049	-2.524289	-1.466041	-1.205862	-0.619471	-1.183991
-0.336065	-0.524629	-0.605373	-0.404028	-0.940336	-1.759099	-1.387839	-1.232357	-2.698633	-2.534574	-2.122263	-2.340567	-1.221862	-0.935936	-0.42755	-0.850089
-0.296854	-0.301203	-0.501538	-0.303363	-0.981911	-1.853824	-1.458967	-1.264692	-2.268921	-1.768202	-1.660002	-1.599939	-0.739405	-0.247961	-0.006179	-0.023997
-0.440401	-0.603004	-0.689878	-0.408069	-0.950962	-1.723579	-1.424194	-1.158237	-2.346867	-1.856308	-1.613041	-1.668332	-1.440171	-1.360903	-0.583045	-1.351461
-0.416351	-0.541456	-0.617504	-0.310337	-0.954214	-1.737474	-1.4705	-1.203299	-2.440831	-2.153139	-1.701673	-1.885771	-1.141384	-0.913599	-0.377232	-0.852123
-0.417156	-0.512343	-0.547086	-0.269541	-0.874863	-1.501916	-1.271542	-0.848555	-2.500973	-2.411672	-1.806224	-2.049928	-1.425564	-1.24399	-0.567782	-1.286646
-0.462098	-0.358251	-0.519883	-0.236294	-0.915879	-1.619371	-1.339707	-0.98177	-2.322423	-2.164537	-1.63927	-1.871291	-1.323864	-1.160161	-0.477864	-1.171458
-0.432493	-0.521408	-0.604671	-0.291316	-0.738852	-1.265189	-1.114616	-0.550143	-2.265163	-1.954103	-1.56599	-1.789146	-0.928451	-0.595715	-0.208357	-0.553282
-0.334371	-0.042417	-0.330582	-0.134234	-0.86159	-1.45731	-1.163116	-0.734774	-2.152523	-1.827584	-1.445286	-1.546615	-1.195321	-0.911268	-0.42755	-0.941472
-0.478325	-0.58226	-0.676458	-0.374375	-0.939698	-1.648767	-1.274849	-0.910619	-2.352451	-2.276008	-1.707441	-2.091303	-1.084434	-0.759166	-0.329439	-0.680891
-0.356932	-0.197043	-0.494271	-0.259032	-0.807166	-1.390764	-1.09105	-0.559273	-2.484071	-2.510906	-1.806774	-2.279875	-1.105327	-0.666021	-0.38159	-0.603341
-0.529258	-0.774189	-0.792995	-0.452203	-0.815135	-1.309509	-1.049215	-0.558022	-2.206482	-2.089703	-1.592574	-1.818419	-1.15947	-0.71648	-0.43199	-0.731199
-0.355492	-0.164034	-0.473416	-0.19348	-1.056884	-1.809389	-1.356558	-1.254875	-2.019003	-1.676236	-1.424239	-1.558984	-1.003665	-0.497081	-0.292925	-0.382531
-0.436215	-0.541456	-0.656079	-0.295162	-0.864274	-1.471864	-1.131177	-0.728678	-2.267463	-2.289182	-1.77113	-2.198514	-1.357798	-1.013757	-0.599724	-0.991532
-0.401538	-0.22554	-0.512717	-0.212169	-0.908225	-1.537564	-1.171432	-0.899644	-2.182296	-2.114862	-1.650811	-1.941161	-1.111101	-0.620763	-0.412069	-0.586325
-0.407217	-0.37833	-0.623925	-0.258617	-0.998413	-1.728745	-1.282042	-1.087051	-1.949652	-1.712968	-1.471827	-1.6007	-1.282492	-0.854411	-0.528175	-0.848244
-0.551498	-0.904973	-0.954936	-0.493713	-0.962419	-1.655724	-1.236656	-1.064115	-2.243704	-2.34037	-1.798116	-2.142008	-1.138633	-0.643396	-0.379918	-0.561045
-0.458959	-0.490532	-0.71549	-0.323579	-0.837861	-1.448749	-1.104407	-0.778331	-1.966408	-1.649229	-1.435118	-1.531961	-1.126199	-0.625798	-0.349438	-0.485507
-0.424271	-0.419428	-0.696276	-0.314878	-0.888229	-1.57502	-1.171432	-0.890428	-2.117562	-2.002395	-1.645005	-1.87353	-0.795045	-0.281066	-0.127717	-0.100772
-0.330809	-0.295902	-0.578338	-0.189854	-0.925348	-1.58994	-1.219971	-1.003985	-1.932292	-1.573916	-1.434977	-1.508962	-1.083538	-0.696272	-0.333847	-0.573678
-0.422748	-0.580963	-0.734277	-0.332692	-0.871064	-1.501022	-1.121183	-0.839071	-2.257391	-2.31509	-1.808769	-2.09998	-0.926225	-0.380696	-0.154007	-0.182502
-0.242074	-0.047884	-0.512717	-0.10639	-0.802509	-1.384792	-1.092596	-0.675306	-2.096818	-1.901893	-1.551015	-1.758344	-0.864039	-0.304244	-0.139936	-0.12908
-0.235748	-0.263823	-0.525575	-0.120038	-0.921354	-1.619776	-1.209899	-1.020294	-1.966408	-1.636645	-1.366409	-1.500583	-0.932894	-0.454027	-0.210808	-0.326716
-0.082713	0.336315	-0.295527	0.076192	-0.924246	-1.626314	-1.255285	-0.996903	-2.100152	-1.964685	-1.572558	-1.792182	-1.287819	-0.884735	-0.434967	-0.84659
-0.228904	-0.427622	-0.570684	-0.11902	-0.878521	-1.545173	-1.131291	-0.804098	-2.185808	-2.178494	-1.710229	-1.968314	-1.225065	-0.753013	-0.335203	-0.726275
-0.099339	0.04716	-0.406047	0.06829	-0.935771	-1.625873	-1.188525	-0.938791	-1.941938	-1.763046	-1.515447	-1.610844	-1.341988	-0.903142	-0.421188	-0.792849
-0.122426	-0.211524	-0.484421	0.017758	-0.909718	-1.566627	-1.212446	-0.934216	-2.168773	-2.178494	-1.715584	-1.978904	-1.239084	-0.8162	-0.355193	-0.739075
-0.111473	-0.305151	-0.590065	-0.029618	-0.885045	-1.43348	-1.17539	-0.868989	-2.083096	-2.015642	-1.626397	-1.871945	-1.108786	-0.527965	-0.244272	-0.383413
-0.064128	-0.202095	-0.583133	-0.005712	-0.978865	-1.670142	-1.290297	-1.113492	-2.186237	-2.229308	-1.742392	-2.031991	-1.211046	-0.686023	-0.313698	-0.592605
-0.09298	-0.25296	-0.562869	-0.004882	-1.093966	-1.905737	-1.471483	-1.507884	-1.817429	-1.496378	-1.366722	-1.36444	-0.985494	-0.346854	-0.088002	-0.130965
-0.145555	-0.488881	-0.667681	-0.093441	-0.98697	-1.699617	-1.290297	-1.136059	-1.90045	-1.648821	-1.447112	-1.523568	-1.361292	-0.823291	-0.34464	-0.775787
-0.122426	-0.52995	-0.694141	-0.112503	-0.845965	-1.410723	-1.088713	-0.768452	-2.162323	-2.05312	-1.683943	-1.947159	-1.449735	-1.013181	-0.388087	-0.88028
0.002531	-0.231961	-0.556036	0.019317	-0.995081	-1.729056	-1.278771	-1.136059	-1.841523	-1.508575	-1.361579	-1.313902	-1.033344	-0.303397	-0.058177	-0.182504
0.019279	-0.386946	-0.648388	-0.028356	-0.945342	-1.566651	-1.257004	-1.013253	-1.831109	-1.470093	-1.393728	-1.377313	-1.02832	-0.362157	-0.021037	-0.186955
0.149278	-0.047884	-0.45848	0.11185	-1.027869	-1.736468	-1.34783	-1.279964	-1.824166	-1.418795	-1.377913	-1.427851	-1.171307	-0.532438	-0.097019	-0.383413
0.025057	-0.550914	-0.720635	-0.140798	-0.87074	-1.440545	-1.169745	-0.848021	-2.176972	-2.093183	-1.690914	-1.953753	-1.273254	-0.76513	-0.128068	-0.619644
0.048144	-0.377474	-0.629321	-0.103974	-1.072855	-1.883905	-1.421952	-1.370721	-2.22777	-2.229308	-1.74776	-2.007391	-1.409222	-0.869076	-0.198038	-0.723984
0.024362	-0.520145	-0.616396	-0.113559	-0.863031	-1.492545	-1.186466	-0.866788	-2.551744	-2.836671	-2.050123	-2.583198	-1.389015	-0.964353	-0.224383	-0.8814
0.095777	-0.212252	-0.497916	-0.014918	-1.053143	-1.927127	-1.524894	-1.4394	-2.268512	-2.153956	-1.710229	-1.983154	-1.402148	-0.899818	-0.202898	-0.802416
-0.046849	-0.682686	-0.733894	-0.248417	-0.946497	-1.692065	-1.419186	-1.192154	-2.453362	-2.591772	-1.951956	-2.303847	-0.984675	-0.305948	0.156156	-0.077183
0.076943	-0.150412	-0.485583	-0.07184	-0.767309	-1.338634	-1.215367	-0.652626	-2.196326	-2.040449	-1.609546	-1.771238	-0.758172	-0.073315	0.220267	0.079375
0.057228	-0.368286	-0.57192	-0.100748	-0.968878	-1.73614	-1.444558	-1.158739	-2.349784	-2.389899	-1.803441	-2.135732	-1.206198	-0.676096	-0.097019	-0.637037
0.027757	-0.029068	-0.427646	-0.049467	-0.952827	-1.706795	-1.466138	-1.193283	-2.189126	-1.977171	-1.561405	-1.696027	-1.172804	-0.572923	-0.066047	-0.533607
-0.154968	-0.784021	-0.89042	-0.383485	-0.741343	-1.333448	-1.193192	-0.551469	-2.553287	-2.612225	-1.933411	-2.342397	-1.111101	-0.570264	-0.033405	-0.611655
0.090543	0.113136	-0.44862	-0.018176	-1.024451	-1.853368	-1.533329	-1.312489	-2.397174	-2.265435	-1.719171	-1.987825	-0.955006	-0.403769	0.101773	-0.339312
-0.14854	-0.794105	-0.922558	-0.318342	-0.819122	-1.398621	-1.288587	-0.802166	-2.028279	-1.63724	-1.397901	-1.386194	-1.232978	-0.724422	-0.135833	-0.804327
0.033478	0.084878	-0.479844	-0.011808	-1.015941	-1.794827	-1.554814	-1.22281	-2.065835	-1.800988	-1.493458	-1.494541	-0.781712	-0.066419	0.214506	0.047785
-0.090643	-0.470468	-0.773722	-0.221302	-0.843069	-1.427695	-1.266895	-0.713676	-2.325497	-2.189822	-1.692633	-1.927947	-1.491343	-1.069536	-0.343263	-1.154375
-0.019671	-0.102417	-0.544888	-0.04386	-0.867653	-1.45731	-1.298679	-0.809528	-2.288513	-2.166678	-1.699075	-1.975699	-0.947275	-0.21743	0.023991	-0.270849
-0.177183	-0.68313	-0.837865	-0.247882	-1.009521	-1.750774	-1.486443	-1.221134	-1.972969	-1.648893	-1.403522	-1.383317	-0.897434	-0.191132	0.085092	-0.095031
-0.024598	0.063038	-0.445529	0.041249	-0.943809	-1.610967	-1.336375	-0.957365	-1.834837	-1.317269	-1.297526	-1.191536	-1.088622	-0.410721	-0.062754	-0.330132
-0.287954	-0.864726	-0.896248	-0.298673	-0.833271	-1.471064	-1.257401	-0.722893	-1.66469	-0.995297	-1.068482	-0.834613	-1.640174	-1.142477	-0.485088	-1.192931
-0.141479	-0.347222	-0.674396	-0.098076	-1.078412	-1.941927	-1.569084	-1.442416	-1.841523	-1.303117	-1.271319	-1.185014	-1.204302	-0.495048	-0.159193	-0.394588
-0.217953	-0.571587	-0.746356	-0.172887	-0.89005	-1.552011	-1.26615	-0.91098	-1.990455	-1.661608	-1.483991	-1.592434	-1.531303	-0.960305	-0.436777	-1.010908
-0.200144	-0.75366	-0.850691	-0.219407	-0.876979	-1.54451	-1.264777	-0.868989	-2.354626	-2.416514	-1.883593	-2.226485	-1.327576	-0.73069	-0.224383	-0.606766
-0.28221	-0.692917	-0.844174	-0.2753	-1.024834	-1.817164	-1.482856	-1.398818	-2.083483	-1.851802	-1.594669	-1.718932	-1.395394	-0.771762	-0.255585	-0.723984
-0.330215	-0.945118	-0.96117	-0.340634	-0.873448	-1.625752	-1.308245	-0.973616	-2.328029	-2.307479	-1.858755	-2.223385	-1.025145	-0.331887	-0.006581	-0.195422
-0.202785	-0.53228	-0.779432	-0.182868	-0.828137	-1.485719	-1.227721	-0.859699	-2.055763	-1.699605	-1.546859	-1.626564	-1.039339	-0.334189	0.005921	-0.223226
-0.220598	-0.370627	-0.668964	-0.159866	-0.865403	-1.55954	-1.287883	-0.999129	-1.945472	-1.444152	-1.399409	-1.329101	-1.504252	-0.973148	-0.274343	-0.894291
-0.152519	-0.261704	-0.579046	-0.077401	-0.817235	-1.464585	-1.247256	-0.792957	-1.979901	-1.572252	-1.488999	-1.507531	-1.047566	-0.402898	0.049582	-0.293813
