fnirSoft:	Exported Text File
Version:	4.2
ExportDate:	12/18/2023 11:37:17 AM
VariableInfo
Name:	oxygraph42.hbt.Time1
Size:	1939 x 1
Type:	Numeric
Content:	Time
Date:	12/18/2023 11:37:06 AM
Notes:	Time saved by Oxygraph from file C:\Users\Anette Johansson\Documents\COBI Studio Data\friska kontroller\2047K\ANETTE_2047K_3_05270841.oxy
Labels:	HBT	TIME
VariableData
Time

46.446
46.958
47.468
47.978
48.488
48.998
49.508
50.018
50.528
51.037
51.547
52.059
52.568
53.078
53.588
54.098
54.608
55.118
55.628
56.138
56.648
57.158
57.668
58.178
58.688
59.198
59.708
60.218
60.728
61.238
61.748
62.258
62.768
63.278
63.788
64.298
64.808
65.318
65.828
66.338
66.848
67.358
67.868
68.378
68.888
69.398
69.908
70.418
70.927
71.437
71.948
72.458
72.968
73.478
73.988
74.498
75.008
75.518
76.028
76.538
77.048
77.558
78.068
78.578
79.088
79.598
80.108
80.618
81.128
81.638
82.148
82.658
83.168
83.678
84.188
84.698
85.208
85.718
86.228
86.738
87.248
87.758
88.268
88.778
89.288
89.798
90.308
90.818
91.327
91.837
92.347
92.857
93.367
93.877
94.387
94.897
95.407
95.917
96.427
96.937
97.447
97.957
98.467
98.977
99.487
99.997
100.507
101.017
101.527
102.037
102.547
103.057
103.567
104.077
104.587
105.097
105.607
106.117
106.627
107.137
107.647
108.157
108.667
109.177
109.687
110.197
110.707
111.217
111.726
112.237
112.747
113.257
113.767
114.277
114.787
115.297
115.807
116.317
116.827
117.337
117.847
118.357
118.867
119.377
119.887
120.397
120.907
121.417
121.927
122.437
122.947
123.457
123.967
124.477
124.987
125.497
126.007
126.517
127.027
127.537
128.047
128.557
129.067
129.577
130.087
130.597
131.107
131.617
132.127
132.637
133.147
133.657
134.167
134.677
135.187
135.697
136.207
136.717
137.227
137.737
138.247
138.757
139.267
139.777
140.287
140.797
141.307
141.817
142.327
142.837
143.347
143.857
144.367
144.877
145.387
145.897
146.407
146.918
147.428
147.938
148.448
148.958
149.468
149.978
150.488
150.998
151.508
152.018
152.528
153.037
153.547
154.057
154.567
155.077
155.587
156.097
156.607
157.117
157.627
158.137
158.647
159.157
159.667
160.177
160.687
161.197
161.707
162.217
162.727
163.237
163.747
164.257
164.767
165.277
165.787
166.297
166.807
167.318
167.828
168.338
168.848
169.358
169.868
170.378
170.888
171.398
171.908
172.418
172.927
173.437
173.947
174.457
174.967
175.477
175.987
176.497
177.007
177.517
178.027
178.537
179.047
179.557
180.067
180.577
181.087
181.597
182.107
182.617
183.127
183.637
184.147
184.657
185.167
185.677
186.187
186.697
187.208
187.718
188.228
188.738
189.248
189.758
190.268
190.778
191.288
191.798
192.308
192.818
193.328
193.837
194.347
194.857
195.367
195.877
196.387
196.897
197.407
197.917
198.427
198.937
199.447
199.957
200.467
200.977
201.487
201.997
202.507
203.017
203.527
204.037
204.547
205.057
205.567
206.077
206.587
207.098
207.608
208.118
208.628
209.138
209.648
210.158
210.668
211.178
211.688
212.198
212.708
213.218
213.727
214.237
214.747
215.257
215.767
216.277
216.787
217.297
217.807
218.317
218.827
219.337
219.847
220.357
220.867
221.377
221.887
222.397
222.907
223.417
223.927
224.437
224.947
225.457
225.967
226.477
226.988
227.498
228.008
228.518
229.028
229.538
230.048
230.558
231.068
231.578
232.088
232.598
233.108
233.618
234.128
234.638
235.147
235.657
236.167
236.677
237.187
237.697
238.207
238.717
239.227
239.737
240.247
240.757
241.267
241.777
242.288
242.798
243.308
243.818
244.328
244.838
245.348
245.858
246.368
246.878
247.388
247.898
248.408
248.918
249.428
249.938
250.448
250.958
251.468
251.978
252.488
252.998
253.508
254.018
254.528
255.038
255.547
256.057
256.567
257.077
257.587
258.097
258.607
259.117
259.627
260.137
260.647
261.157
261.667
262.178
262.688
263.198
263.708
264.218
264.728
265.238
265.748
266.258
266.768
267.278
267.788
268.298
268.808
269.318
269.828
270.338
270.848
271.358
271.868
272.378
272.888
273.398
273.908
274.418
274.928
275.437
275.947
276.457
276.967
277.477
277.987
278.497
279.007
279.517
280.027
280.537
281.047
281.557
282.068
282.578
283.088
283.598
284.108
284.618
285.128
285.638
286.148
286.658
287.168
287.678
288.188
288.698
289.208
289.718
290.228
290.738
291.248
291.758
292.268
292.778
293.288
293.798
294.308
294.818
295.327
295.837
296.347
296.857
297.367
297.877
298.387
298.897
299.407
299.917
300.427
300.937
301.447
301.957
302.467
302.977
303.487
303.997
304.507
305.017
305.527
306.037
306.547
307.057
307.567
308.077
308.587
309.097
309.607
310.117
310.627
311.137
311.647
312.157
312.667
313.177
313.687
314.197
314.707
315.216
315.727
316.236
316.746
317.256
317.766
318.276
318.786
319.296
319.806
320.316
320.826
321.336
321.846
322.357
322.867
323.377
323.887
324.397
324.907
325.417
325.927
326.437
326.947
327.457
327.967
328.477
328.987
329.497
330.007
330.517
331.027
331.537
332.047
332.557
333.067
333.577
334.087
334.597
335.107
335.617
336.127
336.636
337.146
337.656
338.166
338.676
339.186
339.696
340.206
340.716
341.226
341.736
342.247
342.757
343.267
343.777
344.287
344.797
345.307
345.817
346.327
346.837
347.347
347.857
348.367
348.877
349.387
349.897
350.407
350.917
351.427
351.937
352.447
352.957
353.467
353.977
354.487
354.997
355.507
356.017
356.527
357.037
357.547
358.057
358.567
359.077
359.587
360.097
360.607
361.117
361.627
362.137
362.647
363.157
363.667
364.177
364.687
365.197
365.707
366.217
366.727
367.237
367.747
368.257
368.767
369.277
369.787
370.297
370.807
371.317
371.827
372.337
372.847
373.357
373.867
374.377
374.887
375.397
375.907
376.417
376.927
377.438
377.947
378.457
378.967
379.477
379.987
380.497
381.007
381.517
382.027
382.537
383.047
383.557
384.067
384.577
385.087
385.597
386.107
386.617
387.127
387.637
388.147
388.657
389.167
389.677
390.187
390.697
391.207
391.717
392.227
392.737
393.247
393.757
394.267
394.777
395.287
395.797
396.307
396.816
397.328
397.837
398.347
398.857
399.367
399.877
400.387
400.897
401.407
401.917
402.427
402.937
403.447
403.957
404.467
404.977
405.487
405.997
406.507
407.017
407.527
408.037
408.547
409.057
409.567
410.077
410.587
411.097
411.607
412.117
412.627
413.137
413.647
414.157
414.667
415.177
415.687
416.197
416.707
417.217
417.727
418.237
418.747
419.257
419.767
420.277
420.787
421.297
421.807
422.317
422.827
423.337
423.847
424.357
424.867
425.377
425.887
426.397
426.907
427.417
427.927
428.437
428.947
429.457
429.967
430.477
430.987
431.497
432.007
432.517
433.027
433.537
434.047
434.557
435.067
435.577
436.087
436.597
437.107
437.618
438.127
438.637
439.147
439.657
440.167
440.677
441.187
441.697
442.207
442.717
443.227
443.737
444.247
444.757
445.267
445.777
446.287
446.797
447.307
447.817
448.327
448.837
449.347
449.857
450.367
450.877
451.387
451.897
452.408
452.918
453.428
453.938
454.448
454.958
455.468
455.978
456.488
456.998
457.508
458.018
458.527
459.038
459.548
460.057
460.567
461.077
461.587
462.097
462.607
463.117
463.627
464.137
464.647
465.157
465.667
466.177
466.687
467.197
467.707
468.217
468.727
469.237
469.747
470.257
470.767
471.277
471.787
472.297
472.808
473.318
473.828
474.338
474.848
475.358
475.868
476.378
476.888
477.398
477.908
478.418
478.927
479.437
479.947
480.457
480.967
481.477
481.987
482.497
483.007
483.517
484.027
484.537
485.047
485.557
486.067
486.577
487.087
487.597
488.107
488.617
489.127
489.637
490.147
490.657
491.167
491.677
492.187
492.698
493.208
493.718
494.228
494.738
495.248
495.758
496.268
496.778
497.288
497.798
498.308
498.818
499.327
499.837
500.347
500.857
501.367
501.877
502.387
502.897
503.407
503.917
504.427
504.937
505.447
505.957
506.467
506.977
507.487
507.997
508.507
509.017
509.527
510.037
510.547
511.057
511.567
512.077
512.588
513.098
513.608
514.118
514.628
515.138
515.648
516.158
516.668
517.178
517.688
518.198
518.708
519.218
519.727
520.237
520.747
521.257
521.767
522.277
522.787
523.297
523.807
524.317
524.827
525.337
525.847
526.357
526.867
527.377
527.887
528.397
528.907
529.417
529.927
530.437
530.947
531.457
531.967
532.478
532.988
533.498
534.008
534.518
535.028
535.538
536.048
536.558
537.068
537.578
538.088
538.598
539.108
539.618
540.128
540.637
541.147
541.657
542.167
542.677
543.187
543.697
544.207
544.717
545.227
545.737
546.247
546.757
547.267
547.778
548.288
548.798
549.308
549.818
550.328
550.838
551.348
551.858
552.368
552.878
553.388
553.898
554.408
554.918
555.428
555.938
556.448
556.958
557.468
557.979
558.489
558.999
559.509
560.018
560.529
561.038
561.548
562.058
562.568
563.078
563.588
564.098
564.608
565.118
565.628
566.138
566.648
567.158
567.668
568.178
568.688
569.198
569.708
570.218
570.728
571.238
571.748
572.258
572.768
573.278
573.788
574.298
574.808
575.318
575.828
576.338
576.848
577.358
577.868
578.378
578.888
579.398
579.908
580.418
580.927
581.438
581.947
582.457
582.967
583.477
583.987
584.497
585.007
585.517
586.027
586.537
587.047
587.557
588.067
588.577
589.087
589.597
590.107
590.617
591.127
591.637
592.147
592.657
593.167
593.677
594.187
594.697
595.207
595.717
596.227
596.737
597.247
597.758
598.268
598.778
599.288
599.798
600.307
600.818
601.328
601.838
602.347
602.857
603.367
603.877
604.387
604.897
605.407
605.917
606.427
606.937
607.447
607.957
608.467
608.977
609.487
609.997
610.507
611.017
611.527
612.037
612.547
613.057
613.567
614.077
614.587
615.097
615.607
616.117
616.627
617.137
617.648
618.158
618.668
619.178
619.688
620.198
620.708
621.217
621.728
622.237
622.747
623.257
623.767
624.277
624.787
625.297
625.807
626.317
626.827
627.337
627.847
628.357
628.867
629.377
629.887
630.397
630.907
631.417
631.927
632.437
632.947
633.457
633.967
634.477
634.987
635.497
636.007
636.517
637.027
637.537
638.048
638.558
639.068
639.578
640.088
640.598
641.108
641.618
642.128
642.637
643.147
643.657
644.167
644.677
645.187
645.697
646.207
646.717
647.227
647.737
648.247
648.757
649.267
649.777
650.287
650.797
651.307
651.817
652.327
652.837
653.347
653.857
654.367
654.877
655.387
655.897
656.407
656.917
657.427
657.938
658.448
658.958
659.468
659.978
660.488
660.998
661.508
662.018
662.528
663.037
663.547
664.057
664.567
665.077
665.587
666.097
666.607
667.117
667.627
668.137
668.647
669.157
669.667
670.177
670.687
671.197
671.707
672.217
672.728
673.238
673.748
674.258
674.768
675.278
675.788
676.298
676.808
677.318
677.828
678.338
678.848
679.358
679.868
680.378
680.888
681.398
681.908
682.418
682.928
683.438
683.947
684.457
684.967
685.477
685.987
686.497
687.007
687.517
688.027
688.537
689.047
689.557
690.067
690.577
691.087
691.597
692.107
692.617
693.128
693.638
694.148
694.658
695.168
695.678
696.188
696.698
697.208
697.718
698.228
698.738
699.248
699.758
700.268
700.778
701.288
701.798
702.308
702.818
703.328
703.838
704.347
704.857
705.367
705.877
706.387
706.897
707.407
707.917
708.427
708.937
709.447
709.957
710.467
710.977
711.487
711.997
712.507
713.018
713.528
714.038
714.548
715.058
715.568
716.078
716.588
717.098
717.608
718.118
718.628
719.138
719.648
720.158
720.668
721.178
721.688
722.198
722.708
723.218
723.728
724.238
724.747
725.257
725.767
726.277
726.787
727.297
727.807
728.317
728.827
729.337
729.847
730.357
730.867
731.377
731.887
732.397
732.908
733.418
733.928
734.438
734.948
735.458
735.968
736.478
736.988
737.498
738.008
738.518
739.028
739.538
740.048
740.558
741.068
741.578
742.088
742.598
743.108
743.618
744.127
744.637
745.147
745.657
746.167
746.677
747.187
747.697
748.207
748.717
749.227
749.737
750.247
750.757
751.267
751.777
752.287
752.798
753.308
753.818
754.328
754.838
755.348
755.858
756.368
756.878
757.388
757.898
758.408
758.918
759.428
759.938
760.448
760.958
761.468
761.978
762.488
762.998
763.508
764.018
764.527
765.037
765.547
766.057
766.567
767.077
767.587
768.098
768.608
769.118
769.628
770.138
770.648
771.158
771.668
772.178
772.688
773.198
773.708
774.218
774.728
775.238
775.748
776.258
776.768
777.278
777.788
778.298
778.808
779.318
779.828
780.338
780.848
781.358
781.868
782.378
782.888
783.398
783.908
784.418
784.928
785.437
785.947
786.457
786.967
787.477
787.988
788.498
789.008
789.518
790.028
790.538
791.048
791.558
792.068
792.578
793.088
793.598
794.108
794.618
795.128
795.638
796.148
796.658
797.168
797.678
798.188
798.698
799.208
799.718
800.228
800.738
801.248
801.758
802.268
802.778
803.288
803.798
804.308
804.818
805.328
805.837
806.347
806.857
807.367
807.877
808.387
808.897
809.407
809.917
810.427
810.937
811.447
811.957
812.467
812.978
813.488
813.998
814.508
815.018
815.528
816.038
816.548
817.058
817.568
818.078
818.588
819.098
819.608
820.118
820.628
821.138
821.648
822.158
822.668
823.178
823.688
824.198
824.708
825.218
825.728
826.237
826.747
827.257
827.767
828.278
828.788
829.298
829.808
830.318
830.828
831.338
831.848
832.358
832.868
833.378
833.888
834.398
834.908
835.418
835.928
836.438
836.948
837.458
837.968
838.478
838.988
839.498
840.008
840.518
841.028
841.538
842.048
842.558
843.068
843.578
844.088
844.598
845.108
845.618
846.128
846.637
847.147
847.657
848.168
848.678
849.188
849.698
850.208
850.718
851.228
851.739
852.249
852.759
853.269
853.779
854.289
854.799
855.309
855.819
856.329
856.839
857.349
857.859
858.369
858.879
859.389
859.899
860.409
860.919
861.429
861.939
862.449
862.96
863.47
863.98
864.49
865
865.51
866.02
866.53
867.04
867.549
868.059
868.569
869.079
869.589
870.099
870.609
871.119
871.629
872.139
872.649
873.159
873.669
874.179
874.689
875.199
875.709
876.219
876.729
877.239
877.749
878.259
878.769
879.279
879.789
880.299
880.809
881.319
881.829
882.339
882.849
883.36
883.87
884.38
884.89
885.4
885.91
886.42
886.93
887.439
887.949
888.459
888.969
889.479
889.989
890.499
891.009
891.519
892.029
892.539
893.049
893.559
894.069
894.579
895.089
895.599
896.109
896.619
897.129
897.639
898.149
898.659
899.169
899.679
900.189
900.699
901.209
901.719
902.229
902.739
903.25
903.76
904.27
904.78
905.29
905.8
906.31
906.82
907.33
907.84
908.349
908.859
909.369
909.879
910.389
910.899
911.409
911.919
912.429
912.939
913.449
913.959
914.469
914.979
915.489
915.999
916.509
917.019
917.529
918.039
918.549
919.059
919.569
920.079
920.589
921.099
921.609
922.119
922.629
923.139
923.649
924.159
924.669
925.179
925.689
926.199
926.709
927.219
927.729
928.238
928.749
929.258
929.768
930.278
930.788
931.298
931.808
932.318
932.828
933.338
933.848
934.358
934.868
935.378
935.888
936.398
936.908
937.418
937.928
938.438
938.948
939.458
939.968
940.478
940.988
941.498
942.008
942.518
943.028
943.539
944.049
944.559
945.069
945.579
946.089
946.599
947.109
947.619
948.129
948.638
949.148
949.658
950.168
950.678
951.188
951.698
952.208
952.718
953.228
953.738
954.248
954.758
955.268
955.778
956.288
956.798
957.308
957.818
958.329
958.839
959.349
959.859
960.369
960.879
961.389
961.899
962.409
962.919
963.429
963.939
964.449
964.959
965.469
965.979
966.489
966.999
967.509
968.019
968.529
969.039
969.548
970.058
970.568
971.078
971.588
972.098
972.608
973.118
973.628
974.138
974.648
975.158
975.668
976.178
976.688
977.198
977.708
978.219
978.729
979.239
979.749
980.259
980.769
981.279
981.789
982.299
982.809
983.319
983.829
984.339
984.849
985.359
985.869
986.379
986.889
987.399
987.909
988.419
988.929
989.439
989.948
990.458
990.968
991.478
991.988
992.498
993.008
993.518
994.028
994.538
995.048
995.558
996.068
996.578
997.088
997.598
998.108
998.618
999.128
999.638
1000.148
1000.658
1001.168
1001.678
1002.188
1002.698
1003.208
1003.718
1004.228
1004.738
1005.248
1005.758
1006.268
1006.778
1007.288
1007.798
1008.308
1008.818
1009.328
1009.838
1010.347
1010.858
1011.367
1011.877
1012.387
1012.897
1013.407
1013.917
1014.427
1014.937
1015.447
1015.957
1016.467
1016.977
1017.487
1017.997
1018.508
1019.018
1019.528
1020.038
1020.548
1021.058
1021.568
1022.078
1022.588
1023.098
1023.608
1024.118
1024.628
1025.138
1025.648
1026.158
1026.668
1027.178
1027.688
1028.198
1028.708
1029.218
1029.728
1030.237
1030.747
1031.257
1031.767
1032.277
1032.787
1033.297
1033.807
1034.317
1034.827
