fnirSoft:	Exported Text File
Version:	4.2
ExportDate:	12/18/2023 11:37:17 AM
VariableInfo
Name:	oxygraph42.hbt.Block1
Size:	1939 x 16
Type:	Numeric
Content:	Hemoglobin
Date:	12/18/2023 11:37:06 AM
Notes:	Total-hemoglobin concentration changes data saved by Oxygraph from file C:\Users\Anette Johansson\Documents\COBI Studio Data\friska kontroller\2047K\ANETTE_2047K_3_05270841.oxy
Labels:	HBT	DATA
VariableData
Hemoglobin	Hemoglobin	Hemoglobin	Hemoglobin	Hemoglobin	Hemoglobin	Hemoglobin	Hemoglobin	Hemoglobin	Hemoglobin	Hemoglobin	Hemoglobin	Hemoglobin	Hemoglobin	Hemoglobin	Hemoglobin
Optode1	Optode2	Optode3	Optode4	Optode5	Optode6	Optode7	Optode8	Optode9	Optode10	Optode11	Optode12	Optode13	Optode14	Optode15	Optode16
0.096895	0.166176	-0.030747	-0.055251	-0.005883	-0.204035	0.048953	0.064168	-0.149204	-0.490577	-0.172595	-0.539574	0.121108	-0.025713	0.104351	-0.123855
-0.019992	-0.164289	-0.213178	-0.206234	-0.012383	-0.215524	0.050519	0.078249	-0.07093	-0.255224	-0.049254	-0.315028	0.154267	-0.064999	0.111921	-0.064758
0.105853	0.054278	-0.101937	-0.071902	-0.048986	-0.282497	-0.025108	-0.098192	-0.104879	-0.374859	-0.09726	-0.376486	0.000898999999999983	-0.236857	-0.00545299999999999	-0.280999
0.106534	0.140708	-0.071987	-0.058856	-0.049332	-0.205099	-0.026588	-0.030899	-0.032975	-0.112298	0.04598	-0.028586	0.033573	-0.124129	0.023552	-0.265606
0.037075	-0.110154	-0.194858	-0.144047	0.036561	-0.061029	0.038819	0.098382	-0.031726	-0.160039	0.026856	-0.046634	0.092233	-0.039609	0.055809	-0.157363
0.174126	0.036295	-0.05729	0.026077	0.158183	0.201703	0.188378	0.360341	-0.122713	-0.419179	-0.08736	-0.237044	0.295751	0.329799	0.197311	0.19624
0.056664	-0.23896	-0.208432	-0.07888	0.215967	0.360395	0.263907	0.473433	0.00383599999999998	-0.180517	0.027482	0.036887	0.283965	0.382242	0.186158	0.174576
0.154152	0.011298	-0.037416	0.097547	0.215024	0.412314	0.269823	0.448709	0.163693	0.172502	0.179449	0.316584	0.201207	0.296972	0.111369	0.132409
0.222228	0.101428	0.068389	0.24274	0.294279	0.585237	0.344566	0.597698	0.057028	-0.134543	0.055699	0.108803	0.235359	0.396988	0.15276	0.261353
0.242218	0.299656	0.140755	0.318185	0.18595	0.345893	0.222045	0.303877	0.204424	0.075668	0.150331	0.407791	0.439459	0.768832	0.316508	0.596837
0.134213	0.119497	0.110908	0.303479	-0.242697	0.465346	0.36266	-0.108828	0.124271	0.411895	-0.30462	0.122746	0.369034	0.736906	0.133665	0.53254
-0.129807	-0.245616	0.139928	0.283971	-1.244368	0.372428	-0.037976	-2.89394	-2.162856	-1.36719	-2.158346	-1.625707	-0.13361	0.580182	-0.841305	-0.182036
-0.380545	-0.681674	-0.109416	0.135581	-1.909309	0.0425119999999999	-0.564136	-4.06422	-3.615278	-2.200449	-2.988525	-2.538222	-0.438007	0.40426	-1.269183	-0.376929
-0.401279	-0.769284	-0.329906	0.081821	-1.794094	0.016223	-0.855377	-3.596847	-3.637997	-2.335813	-2.584915	-2.276484	-0.561812	0.328596	-1.223816	-0.322322
-0.437993	-0.786674	-0.53346	-0.061705	-1.486825	0.042656	-0.991953	-2.985423	-3.436315	-2.598928	-2.095324	-1.949614	-0.563094	0.326312	-1.06872	-0.32593
-0.391376	-0.786911	-0.565716	-0.154216	-1.321765	-0.153971	-1.109103	-2.62527	-3.194201	-2.535035	-1.672666	-1.75779	-0.717411	-0.133222	-1.12325	-0.54988
-0.217373	-0.678543	-0.52097	-0.164601	-1.079244	-0.049264	-1.062735	-2.128756	-3.01452	-2.551649	-1.389319	-1.584688	-0.691662	-0.192659	-1.068322	-0.479136
-0.178317	-0.685446	-0.605339	-0.32691	-0.954071	-0.232047	-1.09906	-1.89683	-2.856305	-2.641487	-1.206629	-1.45958	-0.633918	-0.158961	-0.964133	-0.480105
-0.158395	-0.653851	-0.606876	-0.350649	-0.814121	-0.244414	-1.016627	-1.527154	-2.656209	-2.424811	-1.014139	-1.377614	-0.56135	-0.235487	-0.867295	-0.34485
-0.052737	-0.430724	-0.514562	-0.273149	-0.709359	-0.179805	-0.972978	-1.33628	-2.539834	-2.489819	-0.976973	-1.410773	-0.530837	-0.248383	-0.80821	-0.332832
-0.042454	-0.381554	-0.48305	-0.281689	-0.652186	-0.268973	-0.951202	-1.219187	-2.300764	-2.109773	-0.744447	-1.037313	-0.421033	-0.045418	-0.708239	-0.213283
0.044895	-0.295931	-0.405462	-0.221921	-0.547778	-0.180002	-0.864314	-0.955265	-2.106026	-1.845074	-0.633502	-0.882657	-0.38862	-0.05319	-0.731469	-0.263877
0.210563	-0.046088	-0.193266	-0.018716	-0.363514	0.135497	-0.707032	-0.612503	-1.931256	-1.523951	-0.501552	-0.609691	-0.389695	-0.021616	-0.743195	-0.309282
0.288832	0.122899	-0.076641	0.104462	-0.236073	0.399158	-0.552584	-0.288936	-1.842635	-1.457887	-0.473947	-0.501484	-0.165987	0.361629	-0.573345	0.040937
0.327855	0.130961	-0.036319	0.197945	-0.122702	0.585399	-0.41836	-0.016794	-1.666879	-1.139304	-0.361507	-0.278961	-0.037654	0.620673	-0.48994	0.258804
0.564206	0.493373	0.207682	0.51557	0.034689	0.866508	-0.279139	0.223361	-1.463479	-0.794195	-0.172993	-0.015265	-0.155398	0.445318	-0.564283	0.01687
0.574205	0.423546	0.164584	0.552065	0.221435	1.231574	-0.084517	0.584289	-1.258321	-0.485246	0.00834200000000002	0.378478	0.0309739999999999	0.789958	-0.408369	0.343005
0.643455	0.460068	0.221256	0.691519	0.315145	1.340599	0.01696	0.8194	-1.104317	-0.20697	0.150662	0.565082	0.091397	0.97058	-0.321849	0.500376
0.682526	0.364662	0.242404	0.780571	0.401974	1.490769	0.11078	0.950252	-0.92	-0.045043	0.293444	0.805547	0.18615	1.077473	-0.226315	0.611757
0.702533	0.486982	0.30575	0.841144	0.452648	1.60173	0.19248	0.994349	-0.710553	0.196609	0.428721	1.070358	0.316508	1.272327	-0.077843	0.811222
0.653018	0.300963	0.226018	0.810808	0.576151	1.780156	0.380796	1.310799	-0.7603	-0.018826	0.341964	0.812634	0.424657	1.364666	0.051638	1.037292
0.772054	0.536588	0.410072	0.9995	0.583427	1.724736	0.371527	1.241221	-0.59383	0.242614	0.505615	1.048873	0.292426	1.12886	0.01843	0.788563
0.702306	0.364662	0.267302	0.865117	0.598025	1.753076	0.417905	1.296321	-0.630074	0.050241	0.447392	0.88691	0.449834	1.351685	0.203773	1.042067
0.801793	0.588355	0.378537	0.969053	0.612772	1.741088	0.454065	1.321776	-0.568848	0.123656	0.50589	0.931924	0.424657	1.223381	0.25683	0.97181
0.821394	0.493256	0.35465	0.999926	0.61994	1.72585	0.445777	1.247077	-0.506278	0.124363	0.534992	0.931924	0.447486	1.147899	0.320224	0.94633
0.791876	0.533288	0.342124	0.957886	0.539841	1.451038	0.342242	1.063613	-0.510488	0.034602	0.536407	0.943002	0.628219	1.419527	0.494563	1.151052
0.861308	0.578908	0.385758	0.929169	0.496274	1.328424	0.304141	0.948683	-0.547093	-0.01652	0.53573	0.801448	0.544653	1.170621	0.473651	0.994058
0.871629	0.623492	0.410072	0.893834	0.481654	1.300128	0.286688	0.908059	-0.478989	0.09965	0.631399	0.929172	0.4955	1.006439	0.428688	0.834419
0.751755	0.364662	0.228922	0.707535	0.438151	1.123851	0.248609	0.862328	-0.547093	0.00662200000000002	0.545054	0.703597	0.459904	0.988906	0.385317	0.745059
0.781963	0.65673	0.346426	0.774166	0.322381	0.90809	0.126534	0.615443	-0.710553	-0.30267	0.418923	0.426117	0.50893	0.994536	0.452119	0.905193
0.732006	0.505338	0.280815	0.759969	0.365708	1.042021	0.137553	0.706293	-0.792687	-0.438766	0.343257	0.321053	0.520568	0.975025	0.451438	0.881404
0.633439	0.45208	0.19857	0.678718	0.271772	0.893961	0.024628	0.578151	-0.68564	-0.254563	0.447927	0.582041	0.340638	0.84822	0.321128	0.567664
0.603317	0.413705	0.203288	0.680319	0.322318	1.055861	0.118017	0.777788	-0.91584	-0.699814	0.208126	0.122746	0.353488	0.852062	0.333259	0.636715
0.623751	0.4774	0.250726	0.774216	0.358495	1.191108	0.146758	0.840668	-0.782776	-0.445412	0.351098	0.400901	0.365621	0.887889	0.311454	0.65873
0.554214	0.322434	0.11952	0.656478	0.264576	0.974818	0.044093	0.625031	-0.752242	-0.394004	0.371497	0.47085	0.448673	1.099457	0.36543	0.791996
0.544095	0.291502	0.090409	0.63437	0.235722	0.90748	-0.002161	0.508487	-0.686732	-0.278322	0.419194	0.545362	0.364816	0.956586	0.311088	0.657202
0.633439	0.456763	0.18058	0.75509	0.336776	1.110053	0.090413	0.724831	-0.780227	-0.531658	0.285913	0.301417	0.150774	0.691846	0.149291	0.32501
0.574205	0.416932	0.14656	0.681888	0.30787	1.056706	0.043719	0.609384	-0.661778	-0.230779	0.477121	0.641252	0.232685	0.863253	0.212387	0.432359
0.633439	0.530041	0.219033	0.739154	0.293509	1.071931	0.069954	0.603167	-0.74182	-0.415978	0.381752	0.493613	0.256171	0.878749	0.243993	0.45355
0.603317	0.224731	0.086208	0.696537	0.329545	1.124307	0.108812	0.657791	-0.626346	-0.203436	0.516945	0.668644	0.399548	1.075295	0.374553	0.721474
0.584212	0.206773	0.103515	0.650116	0.423643	1.301888	0.257855	0.926764	-0.605076	-0.245509	0.518564	0.697351	0.375491	1.039413	0.363514	0.609821
0.643455	0.236782	0.121704	0.656478	0.423656	1.259479	0.268989	0.836543	-0.550145	-0.226313	0.517185	0.589324	0.220474	0.75562	0.255252	0.409633
0.683604	0.321323	0.155544	0.705763	0.518032	1.395329	0.391681	1.06694	-0.487301	-0.131566	0.536916	0.513366	0.26826	0.739586	0.30948	0.476839
0.673554	0.310903	0.130648	0.635842	0.445403	1.218899	0.30595	0.870865	-0.510488	-0.229199	0.545673	0.527065	0.447808	0.98974	0.451771	0.7235
0.723449	0.473825	0.196406	0.67566	0.394657	1.124307	0.267105	0.809186	-0.509469	-0.20697	0.526009	0.447013	0.268545	0.670832	0.365072	0.500998
0.712845	0.33425	0.11038	0.646966	0.445403	1.20505	0.324452	0.90524	-0.506278	-0.232627	0.544393	0.421457	0.280404	0.688194	0.386902	0.545006
0.67396	0.390496	0.094477	0.596229	0.351269	0.947901	0.193211	0.655018	-0.562694	-0.32359	0.478069	0.352983	0.292007	0.739586	0.441007	0.566484
0.693662	0.377153	0.076444	0.583509	0.387515	1.001493	0.222045	0.752234	-0.625332	-0.465782	0.400705	0.216226	0.340863	0.77954	0.485912	0.657934
0.653313	0.407411	0.011186	0.526602	0.351327	0.961132	0.175166	0.652379	-0.63886	-0.53441	0.38197	0.1422	0.352721	0.796915	0.519009	0.657202
0.633601	0.49919	0.011186	0.493393	0.271935	0.786013	0.09079	0.504419	-0.628307	-0.438766	0.37326	0.129807	0.256869	0.652646	0.452862	0.411309
0.605644	0.630575	0.033834	0.495207	0.271786	0.760119	0.098227	0.582768	-0.766761	-0.744734	0.199754	-0.235766	0.281406	0.620673	0.46441	0.501683
0.574205	0.612768	-0.033963	0.436513	0.243155	0.772652	0.053276	0.52141	-0.718776	-0.646851	0.258686	-0.039436	0.246505	0.552652	0.465718	0.481336
0.585256	0.814206	0.031475	0.450878	0.149369	0.532569	-0.059343	0.364146	-0.747874	-0.631811	0.255568	-0.055881	0.28013	0.702624	0.495547	0.520629
0.565394	0.748729	0.029137	0.44924	0.164044	0.585254	-0.04835	0.405264	-0.807114	-0.741258	0.200714	-0.173702	0.319726	0.680094	0.511074	0.550863
0.575695	0.722207	-0.011095	0.430593	0.200201	0.732268	0.01696	0.484919	-0.792687	-0.743966	0.20939	-0.122674	0.390602	0.766448	0.543274	0.683483
0.525486	0.585152	-0.092493	0.331031	0.171052	0.599186	-0.013134	0.461731	-0.770376	-0.77184	0.188398	-0.171005	0.460562	0.93726	0.584474	0.790592
0.665371	0.902074	0.088411	0.500234	0.214348	0.678949	0.043719	0.522746	-0.736559	-0.677874	0.246308	-0.091277	0.461698	0.887889	0.552596	0.792796
0.742495	0.921547	0.101278	0.505969	0.221396	0.666107	0.033471	0.443276	-0.590294	-0.469145	0.370404	0.149667	0.459413	0.862533	0.549824	0.788219
0.812964	1.017903	0.135246	0.525097	0.235911	0.612283	0.03417	0.440498	-0.51769	-0.351294	0.438255	0.288244	0.531824	1.078282	0.604532	0.924017
0.942218	1.107907	0.239386	0.637447	0.293828	0.692099	0.081993	0.483708	-0.378521	-0.114306	0.57385	0.482456	0.664559	1.223381	0.692915	1.173451
1.072526	1.161638	0.330411	0.742422	0.460054	1.055578	0.305191	0.836543	-0.224968	0.100331	0.719703	0.678045	0.64064	1.170621	0.693307	1.151773
1.162053	1.211377	0.371428	0.780571	0.45273	0.961132	0.285962	0.722024	-0.109807	0.244066	0.807613	0.835237	0.74756	1.322076	0.788145	1.283527
1.273641	1.23971	0.446486	0.852418	0.583724	1.150081	0.43762	0.966194	-0.062601	0.274432	0.819768	0.78814	0.79738	1.314372	0.813757	1.37921
1.353663	1.254909	0.432927	0.831587	0.576147	1.083679	0.415899	0.812189	0.037431	0.312665	0.884791	0.867089	0.856581	1.417109	0.877705	1.512878
1.414635	1.383276	0.501265	0.839549	0.561612	0.961632	0.406903	0.759129	0.0215380000000001	0.266721	0.846634	0.774315	0.989831	1.612836	0.987102	1.740968
1.43482	1.36444	0.549304	0.881059	0.590984	0.987758	0.446903	0.831516	-0.00395299999999998	0.171059	0.836813	0.714953	0.771667	1.233904	0.876413	1.420128
1.374315	1.27378	0.496773	0.787101	0.605337	1.028722	0.445425	0.803587	-0.102621	-0.081097	0.743557	0.558001	0.844221	1.342689	0.942778	1.511773
1.36385	1.279781	0.489835	0.747111	0.576163	0.908907	0.405735	0.749641	-0.110793	-0.065247	0.721503	0.410447	0.759607	1.143358	0.876202	1.351631
1.364406	1.154943	0.457888	0.744068	0.554364	0.840109	0.37902	0.6407	-0.045193	0.053818	0.789613	0.486302	0.892934	1.273029	0.988211	1.582008
1.273311	1.051904	0.346171	0.591569	0.5471	0.813143	0.379352	0.706293	-0.128982	-0.127967	0.714822	0.383364	0.83219	1.181862	0.943281	1.443583
1.162939	0.958868	0.303028	0.463717	0.416398	0.479442	0.209647	0.396641	-0.22392	-0.280452	0.632262	0.114713	0.747661	0.934014	0.877705	1.262243
1.142954	0.946996	0.282692	0.449669	0.387786	0.398927	0.184379	0.350881	-0.227975	-0.182333	0.653527	0.140903	0.700485	0.780532	0.814157	1.153415
1.073144	0.975938	0.228501	0.3651	0.322464	0.266757	0.098556	0.29349	-0.395247	-0.535192	0.460128	-0.105915	0.687402	0.845773	0.79023	1.103925
0.9726	0.748729	0.101392	0.218583	0.22173	0.068749	-0.020875	0.122565	-0.4299	-0.514582	0.497068	-0.074122	0.519038	0.527451	0.625836	0.788563
0.932888	0.583395	0.033834	0.179598	0.322938	0.279936	0.083241	0.380146	-0.461169	-0.48711	0.470147	-0.082647	0.519248	0.617141	0.615696	0.811675
0.923703	0.619621	0.054706	0.128592	0.20775	0.056045	-0.074084	0.082673	-0.430968	-0.349454	0.55564	0.139651	0.605083	0.818416	0.673443	0.952327
0.863556	0.39749	-0.049509	0.063919	0.200201	0.068783	-0.084517	0.103523	-0.500829	-0.485246	0.46102	-0.021525	0.496266	0.638942	0.574577	0.747777
0.952735	0.536588	0.101392	0.234195	0.286634	0.253263	-0.00176899999999999	0.300354	-0.452787	-0.421918	0.505746	0.038464	0.605377	0.783757	0.65187	0.907042
0.973517	0.711037	0.185794	0.275672	0.358677	0.438891	0.081219	0.469209	-0.369033	-0.230023	0.604388	0.278841	0.581238	0.782641	0.619059	0.861823
1.012379	0.738986	0.21443	0.328089	0.308046	0.34607	0.024986	0.321997	-0.338581	-0.186113	0.641282	0.307715	0.531332	0.793412	0.594084	0.767243
1.062964	0.715271	0.269008	0.440127	0.423892	0.611985	0.174775	0.566092	-0.259627	-0.068139	0.699424	0.403018	0.651364	0.969816	0.680991	0.923541
1.052592	0.625139	0.225765	0.417761	0.474414	0.733169	0.229426	0.637952	-0.144752	0.051711	0.77757	0.617571	0.808449	1.219986	0.813005	1.172252
1.133175	0.799269	0.357857	0.541299	0.539811	0.840273	0.30448	0.753546	-0.107768	0.147688	0.836354	0.658292	0.918413	1.350654	0.913651	1.356724
1.263273	0.89351	0.473883	0.704148	0.597994	0.936063	0.359207	0.812189	0.011968	0.313694	0.923884	0.811338	0.869764	1.296745	0.880177	1.288537
1.263801	0.88807	0.485366	0.696476	0.612572	0.988984	0.426148	0.889426	-0.0716439999999999	0.00748599999999999	0.798849	0.645639	0.858224	1.336275	0.881025	1.291315
1.273311	0.847088	0.457998	0.685057	0.568868	0.922806	0.424918	0.845097	-0.00290899999999999	0.052343	0.856214	0.659634	0.772506	1.134536	0.857626	1.174151
1.303597	0.896693	0.473883	0.753454	0.663605	1.085217	0.499818	0.983315	0.115039	0.219197	0.944256	0.833832	0.882035	1.263685	0.957634	1.358512
1.232612	0.742393	0.367107	0.661305	0.634546	1.001926	0.48334	0.935615	0.058843	0.126907	0.887419	0.822989	0.905248	1.330138	0.999798	1.331403
1.232873	0.868715	0.412291	0.71844	0.547169	0.867105	0.398266	0.753546	0.050173	0.051711	0.876119	0.75723	0.856814	1.204855	0.967003	1.218315
1.283085	0.980494	0.469439	0.807638	0.554394	0.907864	0.38831	0.772021	0.043121	0.049276	0.893584	0.766124	0.941789	1.349667	1.044985	1.378439
1.212977	0.896693	0.421376	0.723269	0.539872	0.799976	0.351171	0.722024	-0.168964	-0.304424	0.690009	0.385761	1.112568	1.639243	1.134144	1.630808
1.132133	0.702398	0.287257	0.621583	0.525359	0.759563	0.332284	0.737775	-0.186972	-0.277617	0.681774	0.376938	0.906129	1.297773	0.979858	1.266995
1.132133	0.847088	0.291657	0.623149	0.547169	0.839967	0.341895	0.787794	-0.278622	-0.440591	0.623917	0.2999	0.881809	1.245014	0.924536	1.198983
1.021376	0.715382	0.160631	0.472978	0.423708	0.505995	0.163122	0.526951	-0.315506	-0.466431	0.526441	0.16443	0.845261	1.205782	0.880177	1.107083
0.981844	0.763864	0.171438	0.433322	0.40201	0.505822	0.17236	0.626476	-0.368022	-0.442144	0.516945	0.107364	0.555706	0.725556	0.649649	0.702069
0.95199	0.717358	0.130648	0.393925	0.34425	0.465634	0.107768	0.490095	-0.378521	-0.466431	0.477856	0.083887	0.533014	0.731867	0.640611	0.705477
0.882676	0.616628	0.081209	0.335931	0.301268	0.359159	0.06284	0.483708	-0.407851	-0.463424	0.45934	0.128307	0.617304	0.927171	0.695993	0.796652
0.822475	0.291502	-0.088055	0.22729	0.337733	0.45216	0.11078	0.595469	-0.482275	-0.60653	0.400705	-0.009214	0.617304	0.907465	0.685205	0.794593
0.981998	0.582002	0.126134	0.401799	0.438802	0.705475	0.22165	0.832722	-0.327065	-0.32511	0.545454	0.256525	0.8205	1.131852	0.802897	1.036727
1.052592	0.755496	0.280342	0.468271	0.445771	0.692365	0.239014	0.804935	-0.199644	-0.135396	0.671747	0.548252	0.869022	1.310739	0.846751	1.059105
1.132428	0.680427	0.293889	0.537639	0.459972	0.707183	0.284056	0.848218	-0.0980719999999999	0.057611	0.769968	0.690195	0.8816	1.293916	0.880592	1.082613
1.364247	1.154943	0.636388	0.850776	0.525578	0.813292	0.304141	0.836543	-0.056926	0.055575	0.769678	0.686886	1.101383	1.677999	1.114009	1.541335
1.3032	0.822544	0.467249	0.732764	0.590926	0.961632	0.397929	0.954137	0.020532	0.151039	0.838171	0.842947	1.161982	1.802818	1.179677	1.631677
1.385068	0.975938	0.59523	0.857407	0.678209	1.098179	0.50943	1.099926	0.271868	0.628515	1.061924	1.228031	1.051968	1.621454	1.124032	1.471832
1.44481	0.86568	0.597815	0.922704	0.795439	1.286457	0.615313	1.237191	0.122836	0.248936	0.897958	0.886389	1.111611	1.72171	1.19807	1.603219
1.556571	1.204655	0.760707	1.046025	0.758648	1.151336	0.585642	1.092252	0.417571	0.724672	1.16016	1.403585	1.136036	1.830395	1.253252	1.648928
1.546238	1.133258	0.756322	1.066987	0.773295	1.164524	0.623995	1.089422	0.467165	0.800132	1.220375	1.448944	1.123806	1.740264	1.242465	1.603498
1.577078	1.333351	0.815853	1.108685	0.861363	1.32704	0.719659	1.217381	0.396897	0.562504	1.114505	1.262161	1.099423	1.742193	1.242741	1.604257
1.414149	1.033688	0.58203	0.910063	0.802646	1.191248	0.661763	1.137245	0.381405	0.520493	1.067728	1.154586	1.148572	1.835009	1.299467	1.675401
1.39477	1.087179	0.576782	0.941851	0.802515	1.219647	0.650936	1.148879	0.267873	0.27001	0.955863	0.919597	1.051226	1.673906	1.222361	1.539489
1.202512	0.803951	0.369257	0.737595	0.780637	1.204878	0.61464	1.086729	0.28922	0.37477	0.989074	1.071399	0.954204	1.566128	1.178415	1.449323
1.172449	1.030078	0.425943	0.769373	0.700105	1.056706	0.518772	0.977065	0.186116	0.250123	0.908565	0.826357	0.857122	1.385976	1.089532	1.311816
1.161862	0.966314	0.385758	0.774406	0.663636	0.976856	0.470794	0.918989	0.14274	0.145472	0.845745	0.691615	0.905915	1.423347	1.123601	1.427835
1.10229	1.033267	0.341647	0.653306	0.619955	0.840109	0.444756	0.938282	0.030435	-0.013587	0.742443	0.592552	0.736675	1.226372	0.990764	1.064294
1.021475	0.83265	0.208233	0.536068	0.532528	0.626428	0.311905	0.777788	-0.0980719999999999	-0.276841	0.624478	0.316584	0.79738	1.174855	1.013445	1.155325
1.051916	0.992818	0.232607	0.551847	0.489173	0.532043	0.229426	0.600061	-0.211268	-0.467012	0.48801	0.06325	0.639256	0.90058	0.890282	0.88004
0.97161	0.862699	0.155706	0.423856	0.402542	0.332694	0.147149	0.496088	-0.227975	-0.34651	0.537189	0.185412	0.747539	1.093593	0.933225	0.990608
0.972047	0.918479	0.180461	0.423992	0.330226	0.266518	0.099985	0.448709	-0.297436	-0.492327	0.467145	0.039459	0.700712	0.994536	0.903661	0.951346
0.961415	0.76097	0.108192	0.379737	0.344311	0.266577	0.043006	0.35327	-0.325985	-0.444823	0.496348	0.119037	0.663275	1.00566	0.856884	0.856668
0.982345	0.814206	0.137576	0.384676	0.308374	0.213637	-0.002911	0.284666	-0.411663	-0.62319	0.402954	-0.015093	0.785908	1.209908	0.937211	0.997678
1.071755	0.84115	0.21465	0.480686	0.373287	0.319458	0.061741	0.467978	-0.370987	-0.462501	0.488766	0.0759110000000001	0.688736	1.046937	0.859758	0.861823
1.091748	0.84115	0.210351	0.460215	0.416666	0.385764	0.080848	0.449862	-0.342795	-0.488701	0.506781	0.126851	0.567839	0.921692	0.760374	0.659592
1.131787	0.795361	0.233115	0.476031	0.416731	0.38567	0.0816	0.431818	-0.316535	-0.37183	0.5645	0.203485	0.759602	1.217265	0.878012	0.922785
1.242654	0.983493	0.39427	0.639025	0.46001	0.492319	0.135754	0.538413	-0.194246	-0.139417	0.708615	0.461677	0.832852	1.294816	0.935019	1.061672
1.202277	0.84115	0.360016	0.597782	0.525455	0.625555	0.201711	0.666903	-0.196474	-0.208892	0.689524	0.424884	0.832852	1.330138	0.957222	1.083984
1.25324	0.862881	0.407677	0.666096	0.576467	0.759213	0.286688	0.84862	-0.328124	-0.490021	0.52545	0.085179	0.68792	1.132705	0.835881	0.858484
1.323151	0.854082	0.460809	0.744017	0.576405	0.732435	0.258582	0.748502	-0.157417	-0.162379	0.718483	0.327201	0.796266	1.274561	0.956081	1.059648
1.303001	0.782441	0.437887	0.678761	0.525404	0.572249	0.211662	0.601292	-0.068615	-0.019453	0.777382	0.466649	0.833028	1.331054	0.990352	1.130227
1.353565	0.838264	0.508824	0.635911	0.539912	0.505545	0.220894	0.585542	-0.113611	-0.178424	0.673105	0.248919	0.917337	1.347819	1.02237	1.263878
1.404204	0.912087	0.579209	0.683468	0.605292	0.639868	0.284646	0.726285	-0.043179	-0.065967	0.739047	0.273458	0.880581	1.255334	0.999471	1.19424
1.353663	0.75435	0.494538	0.57559	0.598246	0.585316	0.314449	0.783883	-0.043179	-0.041315	0.739265	0.295614	0.893311	1.350654	1.03444	1.266116
1.303094	0.591336	0.414987	0.479124	0.561892	0.518696	0.305191	0.750957	-0.0716439999999999	-0.039619	0.759593	0.262194	0.699522	1.062492	0.912447	0.948801
1.343828	0.809948	0.503797	0.509129	0.489068	0.386073	0.1829	0.470474	0.061868	0.147027	0.87518	0.522982	0.759711	1.096692	0.977929	1.014957
1.323853	0.800846	0.510443	0.490274	0.539912	0.452304	0.239732	0.635337	-0.199644	-0.419179	0.593915	-0.047943	0.917469	1.224336	1.100878	1.265303
1.36385	0.751279	0.517449	0.569269	0.584128	0.53199	0.270702	0.708006	-0.112694	-0.178424	0.674061	0.116659	0.735443	1.004923	0.999471	1.035796
1.313507	0.717358	0.510443	0.540885	0.518267	0.385706	0.202815	0.600061	-0.173272	-0.32511	0.623403	0.087893	0.94135	1.346141	1.143991	1.331403
1.333909	0.859613	0.574487	0.585309	0.533053	0.438784	0.241729	0.679236	-0.05378	-0.019453	0.768407	0.332069	0.80877	1.082956	1.023926	1.062479
1.273034	0.686847	0.466993	0.550419	0.576696	0.6119	0.278631	0.780278	-0.082361	-0.15845	0.701343	0.298426	0.771938	1.133599	0.98921	1.059648
1.293889	0.814206	0.508186	0.580736	0.532824	0.518629	0.230497	0.685204	-0.143655	-0.185658	0.680255	0.196757	0.68792	1.117982	0.924124	0.949583
1.242654	0.634239	0.430741	0.550255	0.576258	0.585786	0.239014	0.73914	-0.092952	-0.065247	0.739265	0.392206	0.723681	1.150291	0.934629	0.970354
1.273311	0.760653	0.473883	0.589937	0.627231	0.746263	0.276358	0.855052	-0.080258	-0.065247	0.739495	0.451165	0.808203	1.310739	0.989956	1.105621
1.283354	0.819349	0.5127	0.60739	0.598035	0.70645	0.247594	0.757683	-0.00184299999999998	0.171059	0.87518	0.603145	0.567221	1.00726	0.814157	0.791261
1.384252	1.033267	0.670831	0.783804	0.619892	0.74644	0.266432	0.774838	-0.000753000000000004	0.099039	0.865164	0.542652	0.639043	1.075295	0.856884	0.856193
1.242654	0.631241	0.442182	0.583509	0.692934	0.813143	0.333336	0.952809	0.064	0.147688	0.89505	0.700616	0.711292	1.252722	0.921987	0.990263
1.303597	0.779141	0.52189	0.640691	0.61259	0.599368	0.229772	0.687828	0.106726	0.288608	0.991593	0.791533	0.699495	1.178869	0.888068	0.944516
1.353481	0.696789	0.506721	0.659761	0.729355	0.799976	0.323709	0.888046	0.116111	0.290853	0.96347	0.758659	0.759793	1.256893	0.968128	1.082613
1.353772	0.732762	0.528913	0.667581	0.700376	0.732259	0.31684	0.861152	0.116111	0.266721	0.963021	0.738819	0.66314	1.147899	0.912447	0.924557
1.404115	0.758131	0.58203	0.747121	0.744292	0.812746	0.363489	0.94555	0.16517	0.342786	1.004328	0.826357	0.639256	1.024793	0.891057	0.857813
1.394109	0.859773	0.611483	0.724806	0.765937	0.895341	0.387395	0.983315	0.154444	0.243304	0.97357	0.720437	0.723391	1.145296	0.966021	0.967325
1.394016	0.838264	0.574825	0.708898	0.729333	0.7871	0.369096	0.928272	0.100179	0.150095	0.916067	0.490554	1.050726	1.578911	1.210994	1.490718
1.515832	1.160963	0.760707	0.861876	0.751467	0.812779	0.371146	0.915929	0.181094	0.339193	1.041902	0.678045	1.087424	1.580404	1.244739	1.537232
1.424858	0.927581	0.620354	0.73448	0.744076	0.826488	0.398973	0.968706	0.141659	0.124363	0.944256	0.562337	1.087524	1.617716	1.300952	1.560557
1.44533	1.080363	0.663962	0.788764	0.6928	0.734469	0.321195	0.83257	0.143846	0.193411	0.972656	0.558561	0.91762	1.278133	1.19064	1.334259
1.546238	1.133258	0.733229	0.900251	0.729355	0.786877	0.331335	0.876537	0.048073	-0.01652	0.876661	0.392206	0.880676	1.219986	1.155693	1.239713
1.495699	1.089224	0.696102	0.858747	0.656578	0.5719	0.267824	0.699757	0.2313	0.390376	1.072683	0.781541	0.892726	1.308459	1.155326	1.239278
1.515595	1.127557	0.705814	0.881114	0.685605	0.585399	0.295219	0.787794	0.11098	0.128954	0.927238	0.49685	0.929324	1.293058	1.178027	1.308305
1.576617	1.352168	0.795355	0.94987	0.73668	0.692634	0.331957	0.857861	0.103348	0.051711	0.89505	0.407791	1.087282	1.489755	1.277768	1.536067
1.454826	1.101706	0.664085	0.817195	0.729404	0.652241	0.34156	0.89084	0.052366	-0.019453	0.856214	0.332069	1.087781	1.582965	1.278937	1.538669
1.556381	1.361288	0.825136	0.970643	0.707452	0.599027	0.313086	0.824917	0.095171	0.073449	0.903686	0.439925	1.038724	1.436427	1.244739	1.445459
1.617235	1.381449	0.839474	1.011004	0.765986	0.732536	0.341895	0.836543	0.144974	0.169901	1.001992	0.636038	0.941375	1.341122	1.175498	1.260763
1.627514	1.358192	0.85982	1.017192	0.817363	0.799339	0.408623	0.983375	0.0863849999999999	0.080664	0.936109	0.513366	0.904815	1.380145	1.176634	1.216748
1.688643	1.32184	0.874263	1.076944	0.868514	0.893961	0.463068	1.060562	0.150378	0.153137	0.975976	0.574394	1.087938	1.584888	1.312796	1.470945
1.7602	1.500972	0.971508	1.136458	0.986161	1.110677	0.566071	1.23277	0.272926	0.291594	1.062482	0.700616	1.221667	1.762424	1.400643	1.674715
1.749969	1.324619	0.924994	1.112242	0.964063	1.015911	0.547365	1.178996	0.299667	0.267436	1.062198	0.601761	1.221589	1.777461	1.422073	1.673064
1.832008	1.480798	1.042783	1.2296	1.030377	1.124068	0.623084	1.262974	0.41974	0.481768	1.189134	0.810087	1.185032	1.721183	1.432252	1.649161
1.749986	1.343547	0.92073	1.104175	1.06725	1.191598	0.642408	1.293384	0.459491	0.505417	1.258139	0.927865	1.234092	1.793786	1.488062	1.717824
1.750112	1.436782	0.977998	1.118422	1.030423	1.151336	0.651205	1.281944	0.474635	0.456077	1.237797	0.827496	1.258325	1.741507	1.489251	1.719164
1.770439	1.332826	0.935777	1.130482	1.037992	1.139529	0.649976	1.274397	0.540255	0.552859	1.287469	0.865926	1.246092	1.686996	1.500034	1.695884
1.749986	1.424981	0.969388	1.08805	1.008543	1.030993	0.640365	1.276166	0.504114	0.487872	1.252488	0.806381	1.344208	1.871768	1.568363	1.813429
1.658066	1.152047	0.837334	0.973926	1.00093	0.948514	0.622278	1.183694	0.547813	0.531797	1.319082	0.853705	1.258469	1.619498	1.490313	1.652694
1.719338	1.301687	0.938772	0.893834	1.037758	0.97541	0.698148	1.316865	0.504114	0.46346	1.252488	0.746556	1.209369	1.489005	1.421751	1.558775
1.647815	1.028053	0.759393	0.57087	0.986168	0.732301	0.642715	1.223859	0.44033	0.484825	1.230664	0.663936	1.233949	1.564264	1.389976	1.562952
1.729587	1.104779	0.791006	0.509129	0.942001	0.545781	0.556183	1.063613	0.334174	0.365106	1.1322	0.413281	1.30778	1.585915	1.402262	1.656218
1.719291	0.851317	0.635492	0.349922	0.978794	0.652009	0.595616	1.119962	0.389707	0.482424	1.199871	0.618834	1.259697	1.48321	1.359619	1.523408
1.852452	1.157936	0.763592	0.431743	0.897898	0.46576	0.499818	0.944023	0.255981	0.316614	1.063088	0.352983	1.209396	1.472773	1.322987	1.424249
1.842247	0.967909	0.744772	0.453879	0.986181	0.639092	0.603527	1.182094	0.22388	0.300075	1.056464	0.306234	1.258316	1.453411	1.322234	1.446096
1.945065	1.207818	0.857598	0.498161	0.993583	0.639435	0.565545	1.063613	0.283683	0.315011	1.082287	0.407791	1.368756	1.616108	1.389221	1.58258
1.873086	0.927581	0.744772	0.419149	1.000999	0.692994	0.612414	1.150487	0.210165	0.254102	1.038325	0.331185	1.258555	1.522187	1.298823	1.398235
1.996494	1.164045	0.901772	0.612066	1.023265	0.707183	0.61177	1.15726	0.267873	0.365106	1.093506	0.432951	1.405794	1.655147	1.390797	1.585548
1.965477	0.918611	0.798329	0.555022	1.141387	0.935463	0.706635	1.356829	0.44033	0.677418	1.290155	0.838184	1.307358	1.579636	1.311203	1.400288
2.037599	1.07996	0.922851	0.665996	1.134535	0.897117	0.686602	1.35401	0.305585	0.367097	1.124457	0.51498	1.479553	1.852979	1.445639	1.699667
2.068555	0.986547	0.950393	0.742306	1.230273	1.097302	0.811002	1.543402	0.435745	0.634895	1.244211	0.749968	1.640262	2.015341	1.556559	1.927755
2.109964	1.129772	1.026719	0.766264	1.222784	1.124307	0.811421	1.538385	0.688923	1.021445	1.48063	1.214375	1.615893	1.994856	1.532832	1.856559
2.089215	1.020843	0.981037	0.740725	1.215309	1.151103	0.85888	1.57197	0.691681	0.967888	1.458523	1.088912	1.603258	1.86881	1.567063	1.857365
2.151248	1.164045	1.069028	0.852295	1.237848	1.152172	0.84865	1.546921	0.61267	0.723904	1.359052	0.910617	1.714801	2.015341	1.645401	2.065699
1.996357	0.819641	0.852233	0.694674	1.170792	1.015035	0.80271	1.463576	0.758789	1.089716	1.51843	1.207898	1.579682	1.920092	1.58814	1.83272
2.006669	1.005199	0.943999	0.75823	1.07477	0.786675	0.640806	1.145765	0.639636	0.796604	1.399091	0.971824	1.641085	1.976214	1.644662	1.948612
1.862687	0.665318	0.728054	0.607469	1.193121	1.110053	0.792782	1.517655	0.652637	0.724672	1.380184	1.011794	1.640222	1.999496	1.646617	1.975654
1.903758	0.884287	0.805766	0.680319	1.119146	0.988756	0.725896	1.401163	0.586705	0.700206	1.340128	0.835237	1.5784	1.870202	1.634822	1.858447
1.924369	0.992818	0.84893	0.71049	1.037992	0.827384	0.592989	1.183694	0.601697	0.770842	1.358382	0.848476	1.689872	1.948192	1.693024	2.001135
1.842302	1.033267	0.827889	0.639064	0.927426	0.626208	0.451657	0.962826	0.624707	0.822791	1.369782	0.953327	1.55397	1.795459	1.600492	1.764871
1.709098	0.79817	0.658598	0.507544	0.905271	0.59889	0.433444	0.958329	0.507964	0.578957	1.269858	0.734723	1.603061	1.763269	1.624336	1.882648
1.811545	1.067399	0.775165	0.637447	0.978865	0.759563	0.508427	1.178996	0.397789	0.440181	1.134824	0.533137	1.504385	1.622496	1.535828	1.72414
1.698891	0.856901	0.59477	0.46332	0.831921	0.452564	0.358148	0.944023	0.422789	0.536776	1.183835	0.708407	1.381052	1.510027	1.434196	1.470126
1.780815	1.023867	0.711022	0.561358	0.766031	0.333694	0.273049	0.798092	0.424567	0.607963	1.22253	0.764825	1.295563	1.378282	1.353582	1.329341
1.780885	0.937042	0.707975	0.589937	0.831921	0.519192	0.339057	0.945542	0.368455	0.494383	1.166072	0.699253	1.258555	1.361706	1.320921	1.216748
1.791179	0.912087	0.705814	0.564588	0.787955	0.452564	0.320213	0.947096	0.500639	0.784334	1.284742	0.992603	1.578654	1.886233	1.54423	1.718726
1.873237	1.120973	0.836691	0.688553	0.802722	0.479869	0.328917	0.936311	0.61267	0.969725	1.398732	1.152234	1.406828	1.55668	1.408646	1.419947
1.996357	1.31146	0.94191	0.799662	0.905375	0.719913	0.432356	1.118964	0.650729	1.021445	1.439586	1.234579	1.541294	1.76509	1.501032	1.630808
2.037707	1.430647	1.015081	0.83484	0.949349	0.772652	0.50866	1.261481	0.657876	1.033337	1.434053	1.233809	1.61558	1.90555	1.555642	1.719668
2.006728	1.185912	0.897485	0.794867	1.023016	0.907075	0.603274	1.431544	0.622865	0.851709	1.360938	1.118703	1.71466	2.035618	1.634822	1.881956
2.078872	1.195499	0.877532	0.822038	1.200546	1.300514	0.782471	1.814542	0.619466	0.857199	1.363129	1.148349	1.689927	2.034131	1.634237	1.857872
2.068547	1.055315	0.815336	0.779013	1.111653	1.0963	0.697661	1.586402	0.608089	0.806185	1.332565	1.085698	1.753409	2.176694	1.70029	1.971381
2.24457	1.386469	1.047839	0.96585	1.13434	1.125496	0.734223	1.617671	0.840084	1.287485	1.576977	1.484648	1.691665	2.066395	1.677546	1.925049
2.213392	1.395939	1.045689	0.897034	1.156449	1.179521	0.753422	1.629965	0.864331	1.290724	1.618403	1.627195	1.566836	1.884643	1.621874	1.717824
2.203238	1.377612	0.980205	0.85407	1.163442	1.150709	0.773459	1.653735	0.738719	1.05492	1.473374	1.268168	1.741151	2.139784	1.756608	2.017685
2.275635	1.427847	1.000214	0.917833	1.119332	1.04395	0.706071	1.561042	0.716821	0.997842	1.439987	1.15387	1.727789	2.105461	1.779797	2.064891
2.161928	1.396386	0.931554	0.80801	1.163968	1.193929	0.762574	1.704517	0.632518	0.835519	1.334932	1.089612	1.727625	2.124221	1.81393	2.088008
2.13061	1.355152	0.858425	0.737547	1.104252	1.069444	0.707069	1.618521	0.661092	1.028329	1.412922	1.142525	1.591339	1.921839	1.700849	1.856559
2.130659	1.28604	0.85322	0.750367	1.074872	1.029754	0.677989	1.608866	0.532872	0.727412	1.270909	0.953327	1.603081	1.944581	1.735953	1.952004
2.068726	1.345621	0.81631	0.677308	1.008855	0.964786	0.610673	1.487448	0.610766	0.923502	1.379798	1.209447	1.517196	1.867591	1.655848	1.78739
2.037771	1.402127	0.80258	0.701092	0.934795	0.773605	0.507797	1.302611	0.511101	0.625713	1.258139	0.904401	1.479909	1.831496	1.656313	1.811084
1.986374	1.289254	0.733229	0.696476	0.942118	0.813873	0.488873	1.335961	0.468162	0.580546	1.239651	0.813976	1.332687	1.57546	1.532126	1.51154
1.95533	1.326816	0.694275	0.666096	0.971491	0.93454	0.498847	1.399597	0.461681	0.566645	1.243329	0.944767	1.394081	1.775746	1.577183	1.718057
1.903897	1.267267	0.682743	0.67566	0.927426	0.854428	0.460603	1.372664	0.357224	0.347517	1.14397	0.82811	1.467357	1.960403	1.634237	1.788701
1.965601	1.380139	0.786744	0.807678	0.94949	0.90809	0.470153	1.421944	0.450459	0.562504	1.261681	1.041683	1.356468	1.872617	1.56768	1.698864
2.006841	1.381046	0.806917	0.887604	1.022999	1.055472	0.50943	1.443256	0.511101	0.626968	1.307897	1.242311	1.467224	2.090677	1.646288	1.905513
2.027292	1.336286	0.817374	0.937017	1.030423	1.055709	0.527859	1.463576	0.520907	0.531797	1.278875	1.246643	1.430263	2.128525	1.623996	1.859805
2.048063	1.381046	0.890171	1.020417	1.082219	1.110237	0.565066	1.520798	0.584772	0.681591	1.360147	1.372884	1.467357	2.144328	1.645401	1.950135
2.089201	1.279781	0.887145	1.083084	1.119146	1.218695	0.593421	1.51921	0.573734	0.580546	1.3091	1.327351	1.467318	2.242796	1.681113	2.094616
2.07897	1.374234	0.932361	1.126384	1.074695	1.09617	0.547089	1.393683	0.664686	0.728471	1.380184	1.493168	1.430268	2.275372	1.679765	2.091131
2.068664	1.367649	0.96729	1.184357	1.170821	1.313497	0.669971	1.633141	0.583841	0.512312	1.252902	1.317393	1.418017	2.25991	1.691905	2.163416
2.109964	1.497225	1.045689	1.271506	1.185621	1.368076	0.670243	1.579064	0.702864	0.754225	1.391026	1.511751	1.381104	2.255601	1.679469	2.160204
2.006659	1.192558	0.873493	1.15874	1.126428	1.245369	0.622804	1.462132	0.719677	0.749163	1.359052	1.384885	1.271797	2.066395	1.599129	1.948264
1.996562	1.27712	0.911232	1.187599	1.126829	1.233334	0.630567	1.4412	0.569934	0.439073	1.203377	1.058305	1.455181	2.252956	1.724203	2.27528
1.85249	1.13619	0.794164	1.010738	1.096975	1.123658	0.58453	1.310799	0.650729	0.557986	1.271671	1.152234	1.283392	1.994856	1.622082	2.018102
1.77076	1.107907	0.72678	0.906637	1.052585	1.015035	0.547089	1.225258	0.413518	0.054662	1.006044	0.566521	1.221665	1.86881	1.566779	1.950689
1.740066	1.030078	0.66906	0.890663	0.956915	0.813873	0.442314	1.047841	0.409839	0.154292	1.037874	0.594233	1.123978	1.6678	1.5217	1.811567
1.648631	1.102351	0.641083	0.788764	0.920286	0.734469	0.375931	0.934636	0.389707	0.123656	1.024116	0.580721	1.185117	1.758262	1.566511	1.903255
1.495828	0.760653	0.455803	0.642328	0.861549	0.614068	0.319414	0.870446	0.137565	-0.324385	0.771245	0.02958	1.087381	1.522187	1.487806	1.718057
1.546832	0.906573	0.542581	0.702741	0.787993	0.412874	0.226829	0.662201	0.180034	-0.208321	0.799139	0.042707	0.977872	1.330138	1.389591	1.492701
1.354522	0.466839	0.305262	0.446317	0.809899	0.359597	0.227326	0.74054	0.218472	-0.065247	0.838797	0.198014	1.002048	1.397272	1.376539	1.534827
1.283354	0.331125	0.237391	0.356211	0.634507	-0.0488540000000001	0.022168	0.328751	-0.044198	-0.581613	0.548161	-0.366377	0.965665	1.328433	1.334014	1.491972
1.253407	0.362169	0.253119	0.367325	0.663605	0.0294180000000001	0.050924	0.454807	-0.146879	-0.676369	0.489041	-0.519368	0.844752	1.153062	1.201182	1.311816
1.112443	0.109606	0.096868	0.249383	0.656302	0.042573	0.032509	0.419651	-0.080258	-0.513586	0.565893	-0.313858	0.687623	1.009026	1.078988	1.129417
1.11213	0.258137	0.194124	0.298023	0.590759	-0.0488540000000001	-0.024134	0.31181	-0.089605	-0.444823	0.593915	-0.241723	0.651031	1.021172	1.010418	1.08066
1.041668	0.082035	0.106023	0.275927	0.670905	0.082087	0.050924	0.505742	-0.171164	-0.60653	0.536916	-0.348494	0.471037	0.704771	0.823533	0.924017
1.071883	0.912087	0.271545	0.319959	0.641733	-0.04928	0.060137	0.206532	-0.123506	-0.997288	0.59671	-0.400675	0.675762	0.782641	0.71386	1.400288
0.891408	0.803951	0.147165	0.0427	0.678196	-0.114779	0.089014	0.2018	-0.041073	-1.161374	0.663023	-0.350987	0.748128	0.854233	0.63699	1.605905
1.001516	1.051904	0.344264	0.180326	0.627206	-0.284315	-0.00518000000000002	-0.00529200000000002	0.024696	-1.023487	0.672527	-0.371301	0.687623	0.729598	0.53806	1.537232
1.041221	0.971824	0.393093	0.286941	0.722109	-0.127728	0.088084	0.172909	-0.057929	-1.204932	0.519531	-0.607045	0.868884	0.942255	0.669492	1.836249
1.141546	1.233123	0.57992	0.453862	0.736966	-0.087797	0.087002	0.130273	0.040776	-1.002154	0.594142	-0.486788	1.06351	1.283555	0.823202	2.161668
0.981035	0.811257	0.368132	0.324755	0.839356	0.121945	0.227592	0.439159	0.22166	-0.630572	0.730729	-0.202212	1.002219	1.242919	0.789331	2.043783
1.031162	1.058254	0.470179	0.479124	0.854062	0.201402	0.264436	0.525517	0.158882	-0.724918	0.633165	-0.355456	0.978972	1.230956	0.801778	2.024975
1.03109	1.133258	0.589351	0.627968	0.942118	0.385948	0.368505	0.737775	0.167235	-0.675731	0.654136	-0.349762	1.02698	1.298845	0.822586	2.115687
1.091367	1.422169	0.757326	0.826935	0.971673	0.532757	0.40522	0.741973	0.308412	-0.415978	0.810983	-0.061851	1.075266	1.385976	0.876641	2.20702
0.981073	1.265104	0.676354	0.771037	1.023041	0.598684	0.481422	0.921075	0.302967	-0.454147	0.737651	-0.160509	1.09946	1.491385	0.876006	2.275791
0.951063	1.490578	0.763592	0.874683	0.934683	0.425584	0.3967	0.703579	0.425491	-0.202381	0.861124	-0.000510999999999928	1.039221	1.286795	0.819909	2.180483
0.811563	1.32184	0.672203	0.826935	0.986753	0.547156	0.451062	0.771899	0.383963	-0.410442	0.755514	-0.167448	0.989867	1.240995	0.776853	2.159578
0.731853	1.541835	0.713113	0.807638	0.905375	0.38622	0.367705	0.592305	0.475508	-0.19747	0.824697	0.00793600000000017	0.92908	1.201576	0.677594	1.97226
0.543602	1.365292	0.593541	0.699364	0.875942	0.306566	0.330231	0.592305	0.370152	-0.33872	0.755971	-0.1852	0.844238	1.075295	0.611953	1.879261
0.53353	1.433979	0.645582	0.755328	0.898013	0.425894	0.367461	0.69497	0.251358	-0.549529	0.649387	-0.372125	0.784223	0.920721	0.525701	1.744347
0.336491	1.055315	0.392111	0.498161	0.832057	0.360127	0.301606	0.613878	0.240267	-0.598322	0.600223	-0.375408	0.784223	0.992492	0.525701	1.743659
0.287502	1.046573	0.387222	0.487912	0.75164	0.215144	0.207393	0.488229	0.157737	-0.608045	0.565631	-0.505794	0.651262	0.847362	0.42751	1.559301
0.228573	0.806922	0.287257	0.392534	0.73672	0.227118	0.171231	0.46028	0.032319	-0.809816	0.453744	-0.642414	0.627221	0.770383	0.393899	1.442775
0.218862	0.992818	0.341647	0.383487	0.693054	0.122526	0.08631	0.368765	0.137565	-0.485246	0.578561	-0.344432	0.566899	0.756296	0.340575	1.32962
0.169889	0.785374	0.280283	0.306244	0.612641	0.00326899999999997	0.012695	0.262461	0.0801	-0.608413	0.507219	-0.450721	0.555252	0.812495	0.374016	1.308873
0.268268	0.85806	0.33278	0.387726	0.612561	-0.010046	0.01411	0.287023	0.060837	-0.579943	0.461674	-0.459556	0.603274	0.883114	0.374278	1.353957
0.375831	0.745302	0.321444	0.365692	0.649261	0.056407	0.00298799999999999	0.299253	0.124759	-0.392219	0.558271	-0.21379	0.627131	1.001367	0.426986	1.397211
0.514036	0.884707	0.405389	0.467079	0.722036	0.213666	0.078864	0.551547	0.185249	-0.265315	0.601604	0.00793600000000017	0.711336	1.254619	0.591637	1.557602
0.682136	0.862699	0.451477	0.548784	0.795434	0.399921	0.189266	0.74494	0.176024	-0.226313	0.646815	0.054825	0.8205	1.439059	0.72438	1.743659
0.841285	0.850138	0.551857	0.701092	0.890618	0.598684	0.255951	0.836543	0.176992	-0.298917	0.626808	0.107364	0.735482	1.363101	0.734636	1.649462
0.951348	0.859613	0.592908	0.747392	0.94242	0.706916	0.329523	0.995873	0.430463	0.171059	0.868359	0.562337	0.892897	1.648734	0.898303	1.901932
1.071371	0.732762	0.593541	0.772591	1.045279	0.853328	0.45288	1.155889	0.586705	0.436178	1.006044	0.777069	0.904808	1.706322	0.943281	1.948889
1.292848	0.949287	0.800444	0.96585	1.075248	0.814113	0.423418	1.046278	0.608958	0.323129	0.960655	0.748239	1.026305	1.852203	1.054259	2.11147
1.292848	0.785374	0.734162	0.887438	1.119491	0.854187	0.442539	1.093719	0.690739	0.366066	1.017562	0.879627	1.063128	1.994856	1.130699	2.180365
1.283212	0.650034	0.705814	0.893929	1.200802	0.974818	0.518772	1.275984	0.623774	0.199379	0.959737	0.803047	0.965515	1.871768	1.110716	2.066207
1.383921	0.751279	0.807832	1.004303	1.149197	0.867713	0.414307	1.010142	0.426438	-0.229199	0.76407	0.508795	1.185038	2.205577	1.311577	2.371827
1.343699	0.705276	0.765724	0.96585	1.126914	0.840273	0.376778	1.011645	0.3452	-0.29796	0.668162	0.360376	1.198009	2.283412	1.380662	2.422883
1.272714	0.530128	0.645008	0.881114	1.060423	0.77339	0.310687	0.947096	0.3452	-0.251227	0.677125	0.376938	0.977973	1.931263	1.267527	2.023096
1.212541	0.493373	0.595667	0.855501	1.023568	0.7871	0.263547	0.898414	0.277148	-0.271933	0.668162	0.398165	0.929104	1.870202	1.276745	1.972653
1.121771	0.300826	0.427518	0.721665	0.978998	0.678949	0.208532	0.823488	0.170704	-0.317379	0.591303	0.268572	0.796288	1.775746	1.24196	1.786693
1.12213	0.44717	0.456621	0.759816	0.868721	0.532404	0.0960019999999999	0.643581	0.054261	-0.531658	0.483464	0.111815	0.723691	1.649275	1.208835	1.648762
1.061764	0.294603	0.401414	0.71049	0.898239	0.612784	0.114278	0.746474	-0.154474	-0.926185	0.301442	-0.20939	0.65118	1.505476	1.187049	1.511773
1.03182	0.34066	0.382846	0.681954	0.758848	0.359597	-0.0435450000000001	0.446186	-0.13719	-0.76818	0.355963	-0.104654	0.783737	1.688408	1.266044	1.673546
1.012032	0.358898	0.357838	0.664467	0.758634	0.359202	-0.042526	0.55543	-0.266949	-0.976997	0.240552	-0.329298	0.65107	1.416389	1.165964	1.46705
0.932472	0.33249	0.303036	0.618585	0.715103	0.333921	-0.118452	0.452399	-0.360207	-1.088764	0.165549	-0.436202	0.639167	1.42135	1.134553	1.446801
0.8124	0.160875	0.151394	0.487037	0.590719	0.095042	-0.245526	0.238948	-0.397184	-1.067969	0.163831	-0.400675	0.591935	1.371488	1.080761	1.337109
0.723663	0.177147	0.135232	0.454183	0.583426	0.108207	-0.254344	0.27018	-0.470762	-1.185013	0.0671849999999999	-0.535988	0.471345	1.152096	0.980292	1.106319
0.743392	0.267844	0.228193	0.501435	0.488927	-0.088614	-0.411291	-0.022013	-0.511485	-1.274352	0.0295559999999999	-0.58796	0.43512	1.078282	0.868896	1.036727
0.594624	-0.101912	-0.013561	0.274505	0.539772	-0.036267	-0.373683	0.122565	-0.563672	-1.342877	0.000744999999999996	-0.56886	0.65178	1.404646	0.980742	1.265303
0.604892	-0.077481	-0.0114	0.27778	0.5107	-0.101711	-0.429147	0.140549	-0.571067	-1.276728	0.018091	-0.594337	0.484133	1.226372	0.882912	0.97449
0.693876	0.01272	0.047259	0.37518	0.510702	-0.023132	-0.429147	0.189714	-0.659599	-1.345665	-0.020337	-0.614475	0.642113	1.44797	1.00663	1.204383
0.733525	0.019193	0.013357	0.398762	0.496174	-0.049332	-0.520748	0.024501	-0.672066	-1.300137	0.017582	-0.483573	0.615382	1.510027	1.002099	1.150398
0.692937	-0.098994	-0.0600470000000001	0.379737	0.554327	0.055596	-0.44627	0.234249	-0.799822	-1.391509	-0.011221	-0.557458	0.675926	1.655147	1.068475	1.21897
0.802871	0.124554	0.067746	0.536032	0.50344	-0.036252	-0.511039	0.104649	-0.721866	-1.163158	0.083737	-0.353308	0.616263	1.567126	1.036168	1.085623
0.782224	-0.02069	-0.00140499999999999	0.499774	0.583432	0.134527	-0.427788	0.233156	-0.779221	-1.228834	0.075401	-0.36077	0.651956	1.601694	1.079843	1.129417
0.822475	-0.08071	0.033793	0.441209	0.539811	0.00307799999999997	-0.473431	0.101368	-0.791674	-1.228096	0.103995	-0.380013	0.687762	1.672992	1.134553	1.219693
0.772645	-0.276267	-0.031227	0.360874	0.561598	0.068779	-0.437209	0.153757	-0.787402	-1.162811	0.140849	-0.370135	0.531641	1.366402	1.01301	0.949583
0.772478	-0.312136	-0.031227	0.37664	0.598035	0.200439	-0.353752	0.265647	-0.837041	-1.346027	0.074072	-0.464505	0.471345	1.311584	1.001268	0.88069
0.792787	-0.155906	0.042972	0.404947	0.467148	0.016336	-0.464739	0.072331	-0.865178	-1.345239	0.093427	-0.403414	0.615261	1.562572	1.133751	1.082613
0.683412	-0.407831	-0.09395	0.334161	0.438298	0.055616	-0.454193	0.118077	-0.976539	-1.528252	-0.002195	-0.558595	0.556571	1.461958	1.12542	1.019862
0.7829	-0.155906	0.065623	0.528149	0.416398	0.069005	-0.501296	-0.00652900000000001	-0.939479	-1.414039	0.055163	-0.386836	0.32901	1.15512	0.981207	0.682513
0.654273	-0.370627	-0.033963	0.458573	0.387556	0.121417	-0.509595	0.087917	-0.980947	-1.435527	0.036559	-0.325189	0.387314	1.363862	1.055927	0.812193
0.684256	-0.12811	0.11038	0.610463	0.423836	0.266522	-0.473057	0.235375	-0.907615	-1.157661	0.170672	-0.094615	0.184812	1.059118	0.934254	0.521855
0.733119	-0.131433	0.117358	0.715272	0.51096	0.518562	-0.371107	0.413844	-0.941686	-1.275672	0.074412	-0.233081	0.220699	1.150291	0.967737	0.5897
0.753476	-0.024656	0.157894	0.727989	0.416511	0.398991	-0.482478	0.237723	-0.938104	-1.241871	0.115593	-0.115766	0.400216	1.475452	1.123601	0.837057
0.792787	-0.098721	0.18761	0.782137	0.467532	0.585207	-0.361634	0.479197	-0.937213	-1.243171	0.096044	-0.139164	0.447005	1.4698	1.143651	0.878095
0.922354	0.195257	0.332852	0.941857	0.459897	0.585959	-0.401588	0.36123	-0.755287	-0.856826	0.2857	0.152508	0.435567	1.455874	1.145107	0.8363
0.832213	0.030803	0.22173	0.846011	0.474414	0.652867	-0.327556	0.541143	-0.793679	-1.019732	0.209175	0.0775359999999999	0.675383	1.81549	1.33327	1.172252
0.833175	0.169491	0.268916	0.898648	0.44549	0.612283	-0.354485	0.439159	-0.798692	-1.047687	0.197982	0.00636400000000001	0.62869	1.712532	1.268809	1.108812
0.8124	-0.065846	0.169906	0.868473	0.423743	0.612283	-0.373002	0.340186	-0.866254	-1.183249	0.141345	-0.0991780000000001	0.531097	1.597495	1.210638	0.969161
0.793193	0.068778	0.232607	0.889045	0.42364	0.612996	-0.364593	0.395175	-0.905578	-1.251235	0.132062	-0.079789	0.640897	1.767086	1.31369	1.042067
0.762586	0.000399999999999956	0.192669	0.878015	0.387658	0.545314	-0.390417	0.352059	-0.813349	-1.069884	0.246065	0.067076	0.567657	1.654262	1.289942	1.016328
0.813404	0.133424	0.259801	0.973855	0.409137	0.613767	-0.365522	0.384208	-0.788503	-1.023487	0.246065	0.065757	0.555384	1.63398	1.278142	0.969725
0.742815	0.00645600000000002	0.16275	0.854008	0.365805	0.559166	-0.40093	0.307697	-0.793679	-1.018782	0.247522	0.116659	0.687402	1.86881	1.378169	1.172252
0.753941	0.072276	0.189496	0.898648	0.365846	0.519034	-0.40093	0.307697	-0.877579	-1.229506	0.150796	-0.102003	0.603005	1.758262	1.321882	1.035796
0.744083	-0.042612	0.153267	0.898648	0.409179	0.626208	-0.346404	0.412166	-0.795169	-1.002704	0.283872	0.115728	0.640182	1.799111	1.357719	1.084771
0.745185	-0.002772	0.139928	0.881298	0.438298	0.732536	-0.317416	0.43658	-0.805141	-1.019732	0.266401	0.172095	0.759895	2.051578	1.456707	1.308873
0.743392	-0.041443	0.133033	0.874683	0.416416	0.666306	-0.336984	0.441871	-0.795169	-0.979587	0.293495	0.212672	0.578872	1.847991	1.343644	0.990263
0.824592	0.112308	0.248721	1.033401	0.467215	0.786342	-0.281023	0.505742	-0.777143	-0.860359	0.342361	0.321053	0.554865	1.830395	1.34397	0.990608
0.862285	0.030803	0.198978	1.054297	0.474461	0.840109	-0.271565	0.420911	-0.654974	-0.7246	0.456972	0.541364	0.723496	2.069717	1.501398	1.262721
0.863081	-0.00318500000000005	0.21216	1.062094	0.452628	0.733621	-0.309983	0.395175	-0.759146	-0.955804	0.332046	0.295614	0.86955	2.27622	1.604523	1.471832
0.943032	0.108314	0.293889	1.153802	0.539815	0.88241	-0.209524	0.582768	-0.658476	-0.793361	0.418603	0.411842	0.78399	2.143647	1.535429	1.308873
0.982744	0.184026	0.316641	1.176439	0.612558	1.002566	-0.115638	0.673479	-0.792687	-1.157661	0.256757	0.155848	0.881809	2.258959	1.627173	1.495294
0.912072	0.063895	0.231008	1.11729	0.547124	0.855971	-0.182051	0.553385	-0.644872	-0.909361	0.389672	0.371224	0.832556	2.200283	1.580611	1.424249
0.933114	0.169491	0.296141	1.197293	0.561598	0.934736	-0.115638	0.689189	-0.63784	-0.882974	0.409837	0.381692	0.77171	2.070367	1.556897	1.330858
0.852753	-0.149389	0.130854	1.070405	0.597989	0.988756	-0.115638	0.673479	-0.520969	-0.698519	0.515586	0.531551	0.687254	1.923605	1.489943	1.194718
0.822475	-0.216168	0.040859	0.988882	0.525237	0.74644	-0.198605	0.488751	-0.633536	-0.955804	0.380114	0.237004	0.711415	1.938618	1.465836	1.192988
0.882886	-0.188571	0.11952	1.014077	0.496193	0.585635	-0.253346	0.305117	-0.643711	-1.025798	0.341482	0.156684	0.868453	2.049849	1.54451	1.39761
1.002625	0.025875	0.255326	1.057384	0.583448	0.653315	-0.199538	0.427711	-0.623238	-0.862308	0.399729	0.316584	0.965665	2.126913	1.568729	1.513952
1.052592	0.040548	0.303036	0.964346	0.539772	0.425894	-0.26314	0.25836	-0.646009	-0.863272	0.341854	0.313827	0.892755	2.067557	1.465836	1.374689
1.163559	0.187545	0.380325	0.97707	0.474414	0.227949	-0.347019	0.082576	-0.666195	-0.771906	0.3414	0.324022	1.002014	2.162496	1.522888	1.489735
1.273311	0.197254	0.462934	0.990377	0.525235	0.360127	-0.273208	0.228665	-0.660699	-0.584139	0.370895	0.410447	0.941569	2.048915	1.487566	1.397158
1.243764	0.15905	0.448785	0.932277	0.5616	0.466491	-0.227257	0.36123	-0.764695	-0.861726	0.237131	0.260711	0.868474	1.997951	1.42241	1.262721
1.254207	0.065333	0.400878	0.884254	0.474401	0.293975	-0.300562	0.145738	-0.839276	-1.024943	0.121801	0.103308	0.892817	2.048915	1.443353	1.283508
1.334622	0.177147	0.524142	0.994692	0.496241	0.400653	-0.246106	0.199165	-0.946825	-0.997288	0.00934100000000004	0.040115	0.808299	1.974968	1.364666	1.19274
1.323853	-0.023403	0.444362	0.969291	0.56892	0.720142	-0.096996	0.457477	-1.0479	-1.067969	-0.105216	0.0174	0.79591	2.031681	1.354109	1.170414
1.3248	0.00397500000000001	0.483026	0.996284	0.467195	0.733882	-0.115638	0.426285	-0.9974	-0.743966	-0.019609	0.324254	0.69928	2.050382	1.309869	1.170952
1.37447	-0.026589	0.524569	1.068883	0.36572	0.66677	-0.180003	0.275239	-1.042715	-0.7246	-0.096766	0.237004	0.614937	1.959151	1.220988	1.035796
1.394466	-0.105051	0.529712	1.140046	0.438135	0.867488	-0.068158	0.486163	-1.086942	-0.743966	-0.142558	0.191697	0.723496	2.127697	1.300177	1.309508
1.394466	-0.137922	0.52031	1.13196	0.467308	0.990127	-0.051431	0.461731	-0.904527	-0.467524	0.026995	0.430083	0.663178	2.049849	1.231428	1.17065
1.394215	-0.093105	0.500539	1.15185	0.525312	1.084225	-0.022966	0.539762	-1.009786	-0.838375	-0.067218	0.263723	0.82004	2.345532	1.376832	1.46705
1.353481	-0.314653	0.44652	1.139457	0.561696	0.98951	-0.050173	0.473104	-0.827939	-0.585314	0.103002	0.466649	0.833064	2.416486	1.363826	1.465565
1.536014	0.00988599999999995	0.675741	1.420878	0.737195	1.15361	0.0408649999999999	0.564092	-0.524046	-0.232081	0.323925	0.818277	0.990494	2.658832	1.464662	1.740615
1.760389	0.240147	0.869539	1.721094	1.031169	1.494933	0.283512	0.929812	-0.53045	-0.437751	0.278979	0.663185	1.087707	2.828017	1.566025	2.041474
1.903801	0.463548	0.972808	1.899141	1.431932	2.158661	0.773932	1.690586	-0.200655	-0.185658	0.478069	0.839727	1.566254	3.510888	1.961447	2.934888
2.078926	0.950314	1.207498	2.094864	1.350419	1.978463	0.735772	1.369345	-0.0370529999999999	-0.113038	0.604933	0.963064	1.271404	3.091345	1.768008	2.720502
2.286021	1.19757	1.458307	2.420792	1.529819	2.187943	0.98268	1.594616	0.611706	0.648314	0.953395	1.341537	1.530927	3.393752	2.016987	3.655683
2.400573	1.189941	1.737368	2.787084	1.778507	2.385656	1.299256	1.801999	1.227365	1.332099	1.230009	1.547295	2.1418	4.106145	2.498165	4.917543
2.473517	1.200222	1.82862	2.879274	2.074514	2.767803	1.648327	2.319633	1.570356	1.57777	1.426537	1.63811	2.344678	4.320686	2.740984	5.146208
2.504912	1.173753	1.88217	2.86618	2.174028	2.824901	1.755571	2.604252	1.618438	1.507816	1.450451	1.495013	2.257862	4.184643	2.74095	4.869717
2.484098	0.971033	1.835746	2.762346	2.181998	2.725871	1.706675	2.586027	1.632697	1.432121	1.468937	1.430332	1.918988	3.527416	2.509388	4.221711
2.494437	1.123492	1.947954	2.670327	2.066836	2.468891	1.522314	2.350398	1.33108	0.870232	1.223771	1.019824	1.968254	3.431513	2.532509	4.171329
2.297195	0.990597	1.703516	2.222387	1.834645	2.113206	1.192323	1.992713	1.035264	0.577658	1.113737	1.071878	1.682775	3.033168	2.290805	3.537958
2.099711	0.63729	1.376886	1.825919	1.606558	1.772936	0.91533	1.805646	0.521568	-0.058266	0.738654	0.589313	1.595452	2.995496	2.210623	3.319901
2.007231	0.60518	1.213287	1.678902	1.449441	1.525261	0.677625	1.550578	0.302141	-0.065967	0.675122	0.569535	1.529191	2.866168	2.143378	3.053339
2.007009	0.456763	1.085981	1.630494	1.367055	1.443092	0.49806	1.479936	-0.0674570000000001	-0.626258	0.330231	0.175468	1.369109	2.60409	2.05229	2.720502
1.925115	0.575768	0.998177	1.494175	1.270305	1.374957	0.328738	1.411282	-0.236534	-0.696071	0.243935	0.195104	1.161869	2.434395	1.880962	2.297756
1.821839	0.40133	0.850212	1.337819	1.076359	1.085217	0.124217	1.111055	-0.314408	-0.601664	0.224931	0.277531	1.197161	2.566678	1.916364	2.250661
1.812311	0.499226	0.819434	1.368934	0.974229	1.007721	0.0204270000000001	1.059735	-0.37548	-0.535905	0.211524	0.263723	0.991284	2.360119	1.756339	1.925937
1.801261	0.438057	0.811468	1.422299	0.958351	1.085994	0.012208	1.047841	-0.472409	-0.615244	0.160117	0.1928	1.112198	2.527459	1.847289	2.087726
1.883671	0.696886	0.922109	1.559587	0.995596	1.209392	0.01198	1.117314	-0.506825	-0.647917	0.137275	0.198685	1.002219	2.421349	1.736573	1.880299
1.791036	0.554434	0.824996	1.466047	0.87769	1.114258	-0.090013	0.914102	-0.516998	-0.697771	0.125852	0.288241	1.014209	2.53144	1.747441	1.902863
1.699876	0.441021	0.759393	1.386729	0.84046	1.113359	-0.098461	0.909519	-0.605076	-0.768857	0.067453	0.168897	0.977655	2.585151	1.690113	1.809836
1.607404	0.097153	0.644847	1.322968	0.833988	1.143828	-0.109054	0.886052	-0.63886	-0.817768	0.075025	0.140903	0.965515	2.530285	1.679469	1.764156
1.791493	0.558255	0.910448	1.611734	0.790011	1.102597	-0.201536	0.668545	-0.676362	-0.887552	0.084124	0.157864	0.881582	2.415717	1.598547	1.604577
1.709179	0.261312	0.751325	1.521988	0.936131	1.385676	-0.0798280000000001	0.908059	-0.563672	-0.561545	0.276049	0.545362	0.95364	2.602058	1.66665	1.717846
1.69944	0.249676	0.753255	1.549914	0.841557	1.252892	-0.191705	0.632585	-0.477849	-0.421676	0.360847	0.784824	1.002132	2.793023	1.725074	1.788196
1.709742	0.191912	0.778478	1.637837	0.87802	1.388807	-0.163958	0.74804	-0.494822	-0.375488	0.390343	0.810087	1.014149	2.884337	1.734912	1.809836
1.760389	0.130578	0.86189	1.765204	0.951093	1.523119	-0.11654	0.773413	-0.598231	-0.585756	0.294605	0.637273	0.953357	2.77224	1.701557	1.764156
1.811696	0.067011	0.865672	1.86188	1.135593	1.854202	0.041421	1.090821	-0.640834	-0.700838	0.247974	0.569535	1.002886	2.844845	1.779106	1.833144
1.729782	-0.0720150000000001	0.741557	1.729348	1.069242	1.743835	-0.032763	0.923852	-0.706268	-0.83952	0.172039	0.475455	0.856893	2.695247	1.688912	1.580171
1.750593	0.052081	0.770555	1.777756	1.046937	1.701956	-0.032461	0.889426	-0.654316	-0.67744	0.257876	0.589324	1.03851	2.996841	1.859359	1.856027
1.729782	-0.143706	0.67235	1.758259	1.025312	1.635519	-0.061183	0.827877	-0.766761	-0.933283	0.123419	0.334769	1.014625	2.920225	1.881109	1.855888
1.791375	-0.050888	0.741557	1.857648	1.143384	1.868767	0.041714	1.043252	-0.667782	-0.699814	0.229962	0.552925	0.96558	2.808987	1.89313	1.763901
1.719506	-0.200781	0.575788	1.696298	1.046937	1.715908	-0.041645	0.85644	-0.691859	-0.747564	0.257876	0.625834	1.13631	3.109168	2.063207	1.971333
1.771243	-0.03819	0.641005	1.726817	1.010116	1.620425	-0.023572	0.911013	-0.719705	-0.746069	0.249013	0.51498	1.08731	2.95869	2.040758	1.879051
1.863003	0.021528	0.70668	1.737605	0.951251	1.483583	-0.09819	0.730847	-0.690877	-0.677874	0.26705	0.507361	0.977699	2.71488	1.984021	1.648928
1.956294	0.26342	0.734162	1.722994	0.92083	1.438828	-0.123423	0.682716	-0.758133	-0.76818	0.23963	0.437588	0.832355	2.435216	1.915474	1.37442
1.842781	-0.123077	0.508045	1.426624	0.788983	1.126629	-0.207738	0.522746	-0.889972	-0.91068	0.179315	0.326097	1.062837	2.753677	2.053035	1.695492
1.915045	-0.034885	0.548629	1.30598	0.722792	0.936396	-0.271203	0.469209	-1.109667	-1.232375	-0.00104900000000002	-0.068533	0.771702	2.231674	1.791466	1.147669
1.976939	-0.034885	0.614482	1.325256	0.642408	0.801433	-0.382081	0.272644	-1.211261	-1.346323	-0.048102	-0.216507	0.651116	1.956143	1.644449	0.967045
1.946064	-0.042612	0.56841	1.2639	0.620275	0.800856	-0.427421	0.2041	-1.250148	-1.322709	-0.028523	-0.194481	0.59088	1.774819	1.588813	0.81025
1.843067	-0.11672	0.454558	1.11729	0.532677	0.733169	-0.471868	0.183942	-1.235856	-1.231542	0.018487	-0.025892	0.687623	1.90555	1.658104	0.901726
1.710206	-0.312136	0.304822	0.972791	0.445597	0.519574	-0.564136	0.072331	-1.442724	-1.500972	-0.141311	-0.393079	0.542983	1.739708	1.522567	0.676697
1.711495	-0.24994	0.317162	1.023665	0.38751	0.439225	-0.599338	0.019009	-1.56402	-1.663036	-0.2471	-0.626113	0.376061	1.454189	1.412466	0.501683
1.680854	-0.338959	0.24877	1.04934	0.496214	0.692265	-0.52512	0.261642	-1.690497	-1.886287	-0.359582	-0.787538	0.280021	1.253945	1.344312	0.300094
1.742425	-0.085527	0.346426	1.169932	0.452868	0.679982	-0.600575	0.104649	-1.641825	-1.727676	-0.236489	-0.503715	0.387241	1.5043	1.421751	0.498227
1.669604	-0.252067	0.22279	1.096674	0.445546	0.719706	-0.608332	0.150465	-1.641825	-1.772524	-0.226961	-0.389745	0.435725	1.688408	1.445264	0.544427
1.79342	0.018324	0.376413	1.266951	0.416845	0.775375	-0.592696	0.224638	-1.590312	-1.592751	-0.189564	-0.317485	0.543066	1.976717	1.567364	0.765646
1.884398	-0.011641	0.419603	1.39107	0.416494	0.773197	-0.571477	0.148434	-1.486873	-1.390681	-0.067409	-0.115585	0.627653	2.070367	1.613565	0.924017
1.997256	0.027659	0.490659	1.482417	0.525391	0.948286	-0.471021	0.328692	-1.396179	-1.323412	-0.00153300000000001	0.02958	0.626975	2.048513	1.588573	0.899609
2.02789	-0.075023	0.45224	1.437237	0.620203	1.043359	-0.398279	0.381217	-1.350343	-1.253185	0.056418	0.074329	0.66314	2.123139	1.611924	0.922504
2.038292	-0.0720150000000001	0.45224	1.411291	0.54752	0.868233	-0.471868	0.168274	-1.183571	-0.932972	0.256224	0.47085	0.88095	2.508759	1.790506	1.306665
2.130993	-0.00829600000000008	0.556241	1.54523	0.605898	0.949334	-0.36244	0.302669	-1.322785	-1.323094	0.046455	0.033834	0.868441	2.528515	1.814161	1.306296
2.265896	0.085136	0.683459	1.714261	0.781287	1.234315	-0.18771	0.584289	-1.267113	-1.203212	0.125232	0.16305	0.856541	2.471906	1.84747	1.351639
2.359215	0.14587	0.780265	1.798273	0.913443	1.465715	-0.067042	0.715593	-1.161992	-1.183903	0.162146	0.247275	1.148232	2.846639	2.098272	1.786857
2.317371	-0.177093	0.612415	1.642707	0.972056	1.5332	0.054453	0.896444	-1.193051	-1.224489	0.126868	0.188645	1.184892	2.904443	2.144091	1.78739
2.463337	0.175976	0.838539	1.785829	0.935203	1.382551	0.007795	0.729155	-1.091472	-1.042133	0.212512	0.279455	1.172684	2.790817	2.132033	1.740757
2.515396	0.103774	0.84288	1.849477	0.876862	1.261395	-0.067797	0.501872	-1.025959	-0.859576	0.31712	0.48402	1.136076	2.6971	2.154944	1.740757
2.484464	0.160875	0.803557	1.806548	0.943007	1.411614	-0.00254199999999999	0.682716	-0.996411	-0.863272	0.353377	0.625834	1.319633	2.979538	2.315798	2.018379
2.328001	-0.129228	0.619769	1.648138	0.899018	1.329729	-0.012445	0.653682	-1.153372	-1.136133	0.173816	0.313274	1.197618	2.864281	2.245739	1.809621
2.380194	0.04577	0.731828	1.754128	0.869482	1.261762	-0.03149	0.670748	-1.100258	-0.931637	0.249013	0.401412	1.014149	2.492932	2.09803	1.512075
2.379699	0.098303	0.794329	1.831535	0.891294	1.315624	-0.077669	0.602558	-1.010761	-0.746634	0.325334	0.57111	0.955064	2.341616	2.039597	1.398081
2.318033	0.271186	0.790086	1.770957	0.898782	1.411614	-0.022314	0.754892	-1.205412	-1.135301	0.098611	0.238075	1.100102	2.601877	2.154038	1.60296
2.172347	0.036693	0.610076	1.617989	0.803164	1.261395	-0.096331	0.670748	-1.331295	-1.271884	-0.024516	0.0312189999999999	1.111749	2.639953	2.200382	1.579999
2.163144	0.191118	0.666924	1.729034	0.723254	1.169151	-0.209524	0.517517	-1.302211	-1.1376	0.03976	0.115	0.892997	2.323827	2.040198	1.238062
2.089688	-0.050888	0.529146	1.652324	0.745066	1.222663	-0.245821	0.49731	-1.321417	-1.104228	0.054395	0.194943	0.844495	2.25003	1.994916	1.170099
2.090438	0.165958	0.57783	1.680389	0.693345	1.166175	-0.272255	0.505742	-1.495192	-1.475156	-0.146785	-0.0394140000000001	1.111684	2.677394	2.177652	1.557035
2.028339	0.076671	0.550666	1.65277	0.60581	1.031361	-0.346404	0.443276	-1.472255	-1.265198	-0.050527	0.041258	0.83219	2.234137	1.973779	1.171319
2.090438	0.321323	0.69213	1.761927	0.598994	1.046736	-0.337913	0.464731	-1.518843	-1.383736	-0.128374	-0.100107	0.820057	2.160094	1.939705	1.125611
2.038042	0.169968	0.577292	1.652324	0.548509	0.981458	-0.430599	0.305537	-1.536656	-1.459413	-0.151396	-0.0991780000000001	0.723691	2.084121	1.836214	0.989555
1.997787	0.205614	0.572665	1.538054	0.555435	0.980356	-0.41214	0.436955	-1.594773	-1.382641	-0.147187	-0.019795	0.916996	2.453976	1.938895	1.260845
1.956126	0.048899	0.498521	1.451132	0.554604	0.962619	-0.39986	0.484919	-1.640908	-1.410518	-0.168828	-0.0896640000000001	0.784156	2.360209	1.847289	1.080094
1.976766	0.001152	0.550666	1.564825	0.591561	1.046269	-0.392811	0.495801	-1.63281	-1.346716	-0.152877	-0.068533	0.880752	2.474533	1.906286	1.262243
2.079401	0.22173	0.704879	1.723935	0.635397	1.141211	-0.4019	0.446186	-1.596412	-1.323412	-0.124292	0.046352	0.795861	2.398343	1.836873	1.192841
2.059286	0.137579	0.687905	1.677426	0.649261	1.138216	-0.353369	0.547964	-1.589357	-1.343565	-0.103596	0.154157	0.759568	2.417897	1.825637	1.147861
2.069247	0.106414	0.730069	1.725371	0.620974	1.020356	-0.411585	0.399672	-1.604356	-1.341306	-0.149687	0.0275059999999998	0.591246	2.175924	1.71186	0.944516
2.161928	0.206462	0.803557	1.864555	0.745066	1.264449	-0.292041	0.645071	-1.587384	-1.390169	-0.160691	-0.021525	0.783803	2.416772	1.859359	1.260845
2.161928	0.288453	0.819041	1.890836	0.738102	1.251736	-0.347311	0.498851	-1.51126	-1.277523	-0.066802	0.16443	0.747912	2.434718	1.881274	1.238089
2.151517	0.209411	0.770555	1.889459	0.745325	1.278771	-0.310569	0.548547	-1.424795	-1.070389	0.038116	0.358809	0.77192	2.527657	1.949524	1.238062
2.193347	0.304223	0.840607	2.001811	0.781391	1.330952	-0.272584	0.607952	-1.502051	-1.275672	-0.046395	0.19006	0.905969	2.657558	2.028442	1.420653
2.172033	0.073043	0.778365	1.895051	0.839983	1.412413	-0.207401	0.670748	-1.40033	-1.093529	0.05732	0.281798	0.808575	2.490409	1.926424	1.238089
2.213753	0.167226	0.799698	1.783149	0.789242	1.170208	-0.246106	0.599898	-1.476653	-1.230114	-0.036803	0.132939	0.881396	2.564446	1.960485	1.283527
2.23427	0.07015	0.762974	1.679775	0.759057	1.057579	-0.252625	0.520108	-1.589357	-1.435527	-0.169133	-0.188465	0.844238	2.400512	1.905107	1.19424
2.286193	0.230652	0.852098	1.767901	0.803476	1.141211	-0.226958	0.545486	-1.713838	-1.617464	-0.235403	-0.339986	0.808188	2.306043	1.881653	1.102416
2.16165	-0.052938	0.650891	1.574059	0.687187	0.901739	-0.375718	0.293548	-1.673444	-1.596265	-0.161185	-0.17794	0.856424	2.384052	1.951905	1.19655
2.151612	0.082035	0.724088	1.626217	0.700974	0.979345	-0.31878	0.461731	-1.727875	-1.594077	-0.178982	-0.283636	0.711336	2.124221	1.837983	0.924017
2.182372	0.0800350000000001	0.74765	1.701889	0.715778	1.034569	-0.337913	0.467863	-1.731435	-1.588316	-0.185175	-0.232837	0.54287	1.868179	1.713587	0.655395
2.090261	0.019193	0.633453	1.581225	0.657063	0.992528	-0.382769	0.344276	-1.752147	-1.594644	-0.140734	-0.169077	0.795855	2.271804	1.917521	1.059105
1.966078	-0.156151	0.477208	1.487781	0.634588	0.921898	-0.407745	0.38232	-1.90116	-1.886287	-0.310163	-0.505349	0.699292	2.08787	1.838302	0.879456
1.987177	0.055316	0.587288	1.600565	0.52563	0.708475	-0.537447	0.092699	-1.909294	-1.844431	-0.303077	-0.515608	0.723496	2.088507	1.850193	0.88004
1.935349	-0.065846	0.487012	1.552275	0.540389	0.844474	-0.501648	0.210424	-1.832777	-1.664389	-0.2471	-0.350987	0.627082	1.977263	1.770785	0.744542
1.894609	0.068778	0.483753	1.549914	0.43859	0.669102	-0.574291	0.110769	-1.959495	-1.798422	-0.35887	-0.492301	0.699522	2.198874	1.83936	0.902917
1.832329	-0.096076	0.410052	1.548016	0.37332	0.588932	-0.638834	0.032159	-1.993471	-1.844689	-0.397273	-0.551136	0.699636	2.181374	1.816982	0.902917
1.853605	0.036295	0.474399	1.62814	0.489194	0.869929	-0.500934	0.355793	-1.943275	-1.687052	-0.303498	-0.348494	0.711782	2.163206	1.794626	0.948801
1.75088	-0.25831	0.291386	1.456436	0.467226	0.828193	-0.498955	0.349736	-1.920294	-1.663471	-0.302612	-0.285166	0.699245	2.232708	1.769544	0.922785
1.761218	-0.11672	0.343192	1.459308	0.416535	0.681121	-0.536284	0.253351	-1.982519	-1.776188	-0.340374	-0.436202	0.771844	2.254189	1.816238	1.082613
1.781432	-0.204359	0.375592	1.498799	0.4095	0.615499	-0.591955	0.126274	-1.945407	-1.708519	-0.322067	-0.455398	0.723496	2.180026	1.770785	1.014371
1.924975	0.142708	0.548629	1.64551	0.46052	0.750801	-0.547887	0.197718	-1.859011	-1.549484	-0.208392	-0.20939	0.651178	2.14301	1.736908	0.969725
1.883566	-0.02069	0.496524	1.590504	0.42397	0.681826	-0.574291	0.10948	-1.808644	-1.436525	-0.133233	-0.079789	0.687212	2.268987	1.758067	0.989983
1.987177	0.079996	0.616577	1.754462	0.510829	0.841157	-0.471868	0.317184	-1.898254	-1.706317	-0.283065	-0.315816	0.832119	2.437239	1.860734	1.239713
2.028026	0.015931	0.633453	1.825919	0.576573	0.964368	-0.409295	0.357103	-1.69556	-1.300479	-0.057856	-0.00648799999999999	0.675138	2.215348	1.724767	0.968231
2.08958	0.078986	0.698928	1.85626	0.598345	0.909928	-0.381349	0.387066	-1.572115	-1.14011	0.018702	0.147827	0.77192	2.379341	1.81393	1.124968
2.048321	-0.077978	0.625506	1.785829	0.533089	0.777006	-0.437895	0.179435	-1.589357	-1.272773	-0.045171	-0.0116179999999999	0.868441	2.474533	1.848904	1.330378
2.1413	0.182192	0.811324	1.943459	0.591673	0.873254	-0.365522	0.285352	-1.562031	-1.275672	-0.027768	-0.0199820000000001	0.78404	2.305713	1.780011	1.215585
1.986473	-0.189336	0.577292	1.733443	0.540302	0.804162	-0.373348	0.228665	-1.63496	-1.482279	-0.104358	-0.136461	0.929104	2.586127	1.92816	1.443951
1.893905	-0.34215	0.429192	1.638519	0.54022	0.804162	-0.382769	0.228665	-1.557799	-1.346323	-0.04767	-0.082647	0.747519	2.307298	1.803739	1.193827
1.883789	-0.398916	0.429192	1.681137	0.60581	0.898455	-0.355501	0.313247	-1.563036	-1.298115	-0.055401	-0.112446	0.699333	2.251438	1.791965	1.170952
1.852997	-0.243372	0.433054	1.641283	0.60581	0.884833	-0.364262	0.262461	-1.562031	-1.344188	-0.055697	-0.094615	0.748198	2.360671	1.836416	1.215398
1.801695	-0.197997	0.419603	1.606956	0.503762	0.681826	-0.46438	0.044941	-1.506962	-1.231886	-0.0289700000000001	-0.104654	0.699495	2.231418	1.768787	1.10231
1.853991	-0.028119	0.510948	1.691606	0.496698	0.683504	-0.493576	0.0700970000000001	-1.684523	-1.549967	-0.21768	-0.43905	0.687509	2.194721	1.746355	1.079758
1.740409	-0.192274	0.362141	1.531599	0.503643	0.775024	-0.46401	0.158603	-1.679255	-1.498228	-0.195516	-0.310555	0.759721	2.343144	1.803453	1.238609
1.771942	0.155676	0.462934	1.587149	0.351279	0.506646	-0.618978	-0.104237	-1.833838	-1.730794	-0.368364	-0.586558	0.687402	2.327861	1.726095	1.105621
1.659464	-0.141089	0.337907	1.532061	0.372938	0.626208	-0.5539	0.089064	-1.877581	-1.754909	-0.379303	-0.576479	0.471105	1.937674	1.56626	0.720388
1.599194	-0.121231	0.293889	1.516625	0.394663	0.720395	-0.573151	0.156115	-1.947457	-1.841551	-0.451851	-0.636406	0.651262	2.254189	1.669971	1.082613
1.49629	-0.276267	0.190609	1.399231	0.264576	0.46576	-0.681055	-0.093283	-2.008608	-1.976264	-0.517868	-0.692195	0.543157	2.139058	1.577413	0.854679
1.517978	-0.110712	0.305262	1.482454	0.221444	0.388915	-0.739546	-0.159035	-1.918146	-1.686549	-0.3878	-0.496492	0.482994	1.995963	1.523582	0.766747
1.546832	-0.132226	0.343192	1.550845	0.300646	0.519574	-0.681909	-0.056617	-2.020621	-1.954277	-0.517294	-0.711295	0.459177	1.923605	1.479235	0.700195
1.588391	0.101428	0.428577	1.578958	0.286353	0.46902	-0.72054	-0.131205	-1.951915	-1.845009	-0.435842	-0.538421	0.579316	2.199557	1.580611	0.925164
1.456134	-0.284681	0.271545	1.439203	0.322336	0.520316	-0.682721	-0.055417	-2.15125	-2.224843	-0.650352	-0.960808	0.626975	2.268672	1.600776	0.967325
1.608621	-0.01353	0.517449	1.684913	0.300741	0.44143	-0.72879	-0.214565	-2.044628	-1.976895	-0.527326	-0.730379	0.423393	1.955501	1.453962	0.675711
1.536714	-0.153242	0.395141	1.537323	0.372982	0.587474	-0.646367	-0.072102	-1.922361	-1.706317	-0.39549	-0.486122	0.411136	1.99285	1.443353	0.653669
1.578283	-0.092184	0.432927	1.565632	0.337254	0.484799	-0.658476	-0.0737230000000001	-1.951915	-1.845009	-0.463836	-0.70704	0.447185	1.955671	1.476946	0.675784
1.58764	-0.26435	0.358718	1.52913	0.365764	0.467578	-0.619364	-0.10175	-1.896213	-1.707546	-0.377852	-0.604229	0.447553	1.918764	1.442617	0.631202
1.629072	-0.155906	0.453629	1.477851	0.395038	0.470333	-0.593725	-0.027868	-1.961475	-1.840084	-0.441751	-0.690595	0.506878	1.976717	1.501398	0.722358
1.5983	-0.237258	0.403547	1.388801	0.36572	0.360856	-0.627979	-0.105433	-2.014124	-1.91228	-0.473102	-0.87258	0.506919	1.955885	1.488624	0.675917
1.619917	-0.18576	0.430474	1.443309	0.351251	0.306712	-0.635292	-0.109895	-2.047636	-1.907513	-0.479073	-0.893878	0.518901	1.88513	1.478859	0.633275
1.536878	-0.339201	0.315053	1.317754	0.358521	0.348091	-0.63737	-0.135105	-1.9072	-1.617944	-0.321376	-0.570236	0.495248	1.864246	1.476684	0.631107
1.558314	-0.192881	0.343899	1.346113	0.271776	0.162289	-0.719036	-0.268049	-2.087017	-1.957314	-0.492128	-0.94789	0.626963	2.085768	1.579479	0.833491
1.49647	-0.392986	0.231008	1.301492	0.286224	0.187954	-0.708828	-0.238282	-2.051165	-1.889282	-0.435129	-0.852531	0.554905	1.939949	1.523953	0.721883
1.506958	-0.248867	0.260155	1.296352	0.286224	0.240647	-0.681055	-0.207293	-2.079529	-1.977464	-0.461887	-0.827014	0.603101	1.974353	1.555931	0.787569
1.476294	-0.177071	0.298647	1.322223	0.264557	0.148587	-0.709249	-0.237182	-2.105591	-1.931636	-0.461615	-0.878033	0.530894	1.919764	1.500351	0.676113
1.497327	-0.078483	0.321146	1.372024	0.315092	0.214469	-0.645143	-0.107729	-2.159477	-2.062036	-0.524799	-0.957947	0.506926	1.812341	1.468559	0.61066
1.475928	-0.276267	0.219618	1.358456	0.27905	0.136285	-0.746738	-0.330766	-2.096637	-2.017605	-0.487895	-0.812484	0.471121	1.795459	1.446439	0.567042
1.456571	-0.146052	0.303036	1.411133	0.271825	0.147796	-0.724933	-0.276278	-1.986529	-1.838364	-0.412567	-0.626143	0.627082	2.087279	1.546917	0.857207
1.475615	-0.252159	0.238265	1.441513	0.322318	0.188141	-0.69943	-0.190729	-1.95637	-1.797373	-0.367841	-0.562935	0.482994	1.904302	1.423519	0.567042
1.618199	-0.014709	0.374312	1.623725	0.380296	0.281991	-0.71006	-0.168413	-1.948451	-1.748849	-0.300304	-0.349317	0.554853	2.066739	1.511784	0.653886
1.597361	-0.239695	0.268498	1.574064	0.424118	0.390155	-0.71223	-0.177178	-1.918146	-1.843726	-0.293345	-0.286653	0.735437	2.454321	1.736573	1.102823
1.719917	-0.075023	0.427518	1.722509	0.439067	0.431958	-0.676815	-0.169746	-1.957432	-2.067149	-0.405544	-0.357709	0.64047	2.47145	1.768178	1.125443
1.852452	-0.182455	0.591012	1.917356	0.642615	0.724154	-0.511694	0.068618	-1.788507	-1.908274	-0.290422	-0.162308	0.460585	2.212458	1.655113	0.900308
2.089404	-0.00255100000000003	0.871505	2.284658	0.906057	1.168186	-0.290809	0.376775	-1.611707	-1.820614	-0.177756	0.059652	0.702338	2.58332	1.835341	1.421395
2.037599	-0.0997819999999999	0.8933	2.345268	1.068925	1.402079	-0.199538	0.547	-1.42957	-1.523123	0.0337460000000001	0.390497	0.89358	2.92042	1.995317	1.832838
2.120338	0.112368	1.111399	2.565709	1.151025	1.46019	-0.173131	0.555064	-1.267983	-1.249609	0.206376	0.623251	1.015536	3.070912	2.085881	2.017685
2.130549	-0.050216	1.180147	2.676131	1.203324	1.585061	-0.163958	0.658186	-1.345273	-1.269915	0.181072	0.611371	0.8703	2.938714	1.892394	1.786606
1.872989	-0.0720150000000001	1.177984	2.726891	1.121372	1.596868	-0.439952	0.568869	-1.63544	-1.106787	0.174073	0.731697	0.834523	3.032934	1.688533	1.809677
1.515542	-0.343306	0.990744	2.572029	0.981276	1.434525	-0.742511	0.546741	-2.016073	-1.020615	0.103816	0.599545	0.604149	2.770023	1.407903	1.626062
1.353275	-0.294209	1.029275	2.574185	0.841209	1.310897	-0.951477	0.514204	-2.327903	-1.200144	-0.10073	0.245894	0.473803	2.452797	1.262481	1.511371
1.272612	-0.379429	1.059575	2.576743	0.86222	1.332908	-1.003814	0.49731	-2.304601	-0.946349	0.0242200000000001	0.398334	0.415917	2.249569	1.218049	1.512862
1.191874	-0.291054	1.139238	2.519759	0.833357	1.280518	-1.049823	0.384208	-2.34062	-1.177952	-0.00432900000000003	0.263645	0.485575	2.304833	1.273672	1.786567
1.131567	-0.428153	1.051338	2.358293	0.811223	1.183968	-1.058508	0.317753	-2.317304	-1.268832	0.0151159999999999	0.147209	0.558238	2.304722	1.28475	1.902192
1.323026	0.012719	1.298398	2.545241	0.804132	1.116908	-1.058761	0.237597	-2.206945	-1.155718	0.147788	0.239964	0.511625	2.028522	1.251383	1.78781
1.404483	0.0513400000000002	1.31343	2.545058	0.929025	1.307556	-0.923692	0.419888	-2.254389	-1.546101	0.060702	-0.031153	0.594655	2.010434	1.307052	1.948589
1.424255	0.227665	1.262859	2.438291	0.936431	1.29373	-0.887304	0.402834	-2.24377	-1.748849	0.052176	-0.0470919999999999	0.714868	2.139058	1.351688	2.064422
1.536043	0.705283	1.333991	2.464997	0.870295	1.184539	-0.878543	0.337937	-2.13103	-1.638503	0.182691	0.0384800000000001	0.727436	2.046915	1.374087	2.041663
1.617639	0.766811	1.39699	2.534194	0.870973	1.160125	-0.852134	0.346484	-2.010116	-1.476158	0.271187	0.100503	0.908973	2.267753	1.530787	2.227697
1.64823	0.557437	1.361343	2.559714	0.900232	1.240321	-0.815703	0.442018	-1.962219	-1.472961	0.25474	0.0881989999999999	0.858949	2.139499	1.530765	1.99454
1.750544	0.766811	1.4995	2.675567	0.958665	1.498045	-0.633336	0.735709	-1.750463	-1.201231	0.417178	0.430124	0.874303	2.249313	1.598352	1.926766
1.7404	0.705283	1.4363	2.648701	0.907826	1.433061	-0.61589	0.777237	-1.776846	-1.335039	0.32414	0.287584	1.055717	2.58298	1.767345	2.11135
1.740274	0.794495	1.489442	2.730628	0.952344	1.571835	-0.497386	1.018765	-1.727284	-1.359454	0.265206	0.0921000000000001	1.16556	2.751397	1.891895	2.135115
1.802657	0.827252	1.591496	2.883817	0.987854	1.676214	-0.404422	1.118964	-1.429511	-0.848092	0.537737	0.560006	1.24974	2.80722	1.959828	2.180645
1.822415	0.977445	1.643891	2.973751	1.165416	2.051906	-0.174531	1.580465	-1.262469	-0.716632	0.610714	0.679277	1.423667	3.108786	2.09668	2.462715
1.772586	0.864662	1.564082	2.908472	1.040005	1.803595	-0.248799	1.330649	-1.033933	-0.463424	0.792159	1.025193	1.281102	2.960692	1.961157	2.09447
1.822415	1.055132	1.681661	2.966443	1.091929	1.874749	-0.128884	1.538602	-1.000663	-0.475086	0.751979	0.890786	1.248707	2.863694	1.925735	2.064082
1.896178	1.15459	1.761475	3.050289	1.135756	1.954379	-0.054127	1.614045	-0.8483	-0.26053	0.880421	1.071134	1.154571	2.695486	1.857983	1.857441
1.884475	1.317435	1.749754	2.953977	1.116061	1.93946	-0.045949	1.608865	-0.741058	-0.275084	0.890444	1.181099	1.336129	2.976401	2.016751	2.041663
1.843738	1.146378	1.618974	2.82486	1.076682	1.872542	-0.0265639999999999	1.582269	-0.785217	-0.281158	0.862777	1.0174	1.152367	2.713648	1.925763	1.740916
1.935807	1.2986	1.653927	2.893811	1.069587	1.846548	-0.00830299999999995	1.605624	-0.783715	-0.356806	0.839599	0.967185	1.163602	2.732307	1.993896	1.832772
1.926272	1.319117	1.555589	2.789305	1.057039	1.884653	0.00978800000000013	1.611152	-0.780782	-0.413967	0.833227	0.990621	1.16746	2.752485	2.02842	1.789979
1.96668	1.39293	1.538961	2.716117	1.033322	1.780044	0.00997599999999998	1.647189	-0.782607	-0.335883	0.837371	1.003197	1.162949	2.751098	2.039415	1.717569
2.049673	1.28681	1.535277	2.720811	0.966997	1.627861	-0.0457749999999999	1.477776	-0.776551	-0.325768	0.846554	0.9764	1.200287	2.76975	2.084987	1.786886
2.173962	1.273744	1.560978	2.746472	0.967853	1.618108	-0.0737919999999999	1.38641	-0.741058	-0.273052	0.87985	1.067428	1.14002	2.657554	2.107838	1.718085
2.267799	1.284	1.56932	2.691407	0.923054	1.519916	-0.092244	1.362186	-0.66546	-0.105179	0.969685	1.270263	1.225757	2.844812	2.187803	1.856618
2.435644	1.365883	1.6344	2.755131	0.966427	1.612297	-0.00840400000000008	1.520894	-0.701919	-0.179505	0.937213	1.164658	1.155583	2.715578	2.15423	1.699947
2.623364	1.476477	1.73907	2.892427	1.034415	1.715761	0.0377130000000001	1.588767	-0.666093	-0.102524	1.009054	1.295008	1.301046	2.901856	2.279795	1.951215
2.750832	1.60034	1.783951	2.924553	1.114693	1.876338	0.112515	1.674725	-0.553748	0.098195	1.133265	1.57233	1.392327	3.112669	2.396008	2.096572
2.897119	1.776846	1.880403	3.030327	1.174703	1.948849	0.168331	1.732205	-0.411151	0.286652	1.219563	1.644904	1.532	3.364358	2.524145	2.35935
3.05709	1.725398	1.923676	3.14172	1.277196	2.109266	0.271753	1.835794	-0.29037	0.416947	1.35004	1.863151	1.660673	3.528939	2.637395	2.558811
3.14139	1.859219	1.980691	3.208509	1.361191	2.228265	0.327472	1.869079	-0.295618	0.265835	1.330163	1.811415	1.659596	3.54713	2.660359	2.534366
3.174384	1.730459	1.939162	3.204922	1.34613	2.185375	0.355636	1.799544	-0.307922	0.118969	1.260005	1.605989	1.644297	3.48878	2.659908	2.508272
3.376559	2.063278	2.171716	3.45494	1.451204	2.357418	0.468462	1.961022	-0.305694	-0.00730600000000003	1.226071	1.511463	1.573797	3.356335	2.649038	2.39342
3.39102	1.95099	2.103153	3.402652	1.547424	2.493645	0.553465	2.05035	-0.163739	0.136777	1.326405	1.69481	1.67504	3.51009	2.753871	2.559566
3.442797	2.130096	2.173741	3.464181	1.481745	2.372857	0.525042	1.943024	-0.0469220000000001	0.376297	1.445206	1.812146	1.634466	3.489222	2.753164	2.509138
3.389682	1.797823	2.068039	3.398242	1.533334	2.425405	0.600658	2.038352	-0.19333	0.0551730000000001	1.265626	1.497458	1.72429	3.586416	2.823678	2.676553
3.40144	1.879925	2.130695	3.459714	1.632338	2.616739	0.685967	2.173468	-0.203865	-0.030052	1.267156	1.474895	1.733064	3.565506	2.846086	2.626802
3.347529	1.718225	2.028326	3.368619	1.534193	2.386218	0.591173	1.92504	-0.0994969999999999	0.183944	1.356067	1.653444	1.720968	3.584597	2.83452	2.579404
3.282039	1.566805	1.968989	3.345683	1.481745	2.288619	0.543987	1.808043	-0.0860909999999999	0.254102	1.394465	1.651142	1.460173	3.127412	2.648376	2.227208
3.263001	1.612816	2.010127	3.364341	1.487419	2.295294	0.544037	1.754112	-0.045782	0.321866	1.460671	1.780419	1.535157	3.241212	2.718065	2.367955
3.186343	1.585969	1.953676	3.270115	1.399165	2.117744	0.468462	1.649276	-0.255131	-0.05699	1.245556	1.433823	1.696813	3.527251	2.83452	2.650172
3.120889	1.411478	1.868658	3.247309	1.375023	2.112371	0.468562	1.68864	-0.295618	-0.14478	1.179924	1.345321	1.449617	3.108786	2.671858	2.298525
3.102133	1.373563	1.906723	3.292058	1.4059	2.171095	0.44964	1.643118	-0.360084	-0.263788	1.072813	1.168292	1.485612	3.184242	2.683368	2.391497
3.015227	1.346831	1.892917	3.256031	1.398102	2.19875	0.449668	1.690559	-0.255671	-0.0542339999999999	1.218825	1.539018	1.476303	3.242232	2.684002	2.370411
2.952393	1.180526	1.812366	3.196955	1.368215	2.171095	0.412032	1.587888	-0.269002	-0.052753	1.199369	1.502619	1.404205	3.128836	2.637978	2.30165
3.068198	1.368341	1.955242	3.355574	1.331592	2.04648	0.346258	1.434446	-0.15198	0.257106	1.356067	1.736251	1.158435	2.770983	2.441453	1.905856
2.963122	1.216396	1.80938	3.213323	1.273035	1.938454	0.271157	1.203544	-0.16316	0.178525	1.322288	1.685737	1.463775	3.241687	2.695306	2.415933
2.908116	1.216482	1.794407	3.167786	1.234407	1.794989	0.215141	1.106678	-0.227804	0.059927	1.224057	1.470391	1.377954	3.185319	2.614474	2.25304
2.898101	1.152069	1.856538	3.229876	1.323555	1.961252	0.346364	1.36213	-0.203865	0.183944	1.276547	1.541442	1.354162	3.091128	2.60303	2.230809
2.961609	1.313836	1.982751	3.366632	1.361455	2.102527	0.393211	1.385366	-0.294067	-0.079778	1.167689	1.39737	1.490704	3.31913	2.684656	2.489784
2.782083	0.777187	1.689822	3.128403	1.40491	2.168483	0.468846	1.527504	-0.318456	-0.201256	1.116719	1.311045	1.475724	3.318056	2.695669	2.440769
2.85606	1.057662	1.870268	3.28568	1.35366	2.089212	0.430829	1.434446	-0.294606	-0.102524	1.119472	1.279101	1.501378	3.356679	2.684204	2.535758
2.804955	0.807786	1.785109	3.258101	1.404241	2.137658	0.469057	1.436216	-0.369439	-0.345602	1.045269	1.087632	1.472654	3.31714	2.659995	2.579113
2.930197	1.033765	1.915637	3.262492	1.50279	2.239834	0.515778	1.546921	-0.279548	-0.178424	1.146201	1.347611	1.463204	3.374691	2.625757	2.603932
2.793479	0.557493	1.685252	3.014195	1.442365	2.140003	0.51602	1.492263	-0.397866	-0.410442	0.981728	1.003197	1.587498	3.547451	2.684204	2.794697
2.887412	0.840795	1.867069	3.181747	1.391619	1.992396	0.440233	1.318769	-0.331817	-0.131566	1.11606	1.288532	1.30607	3.129645	2.464865	2.348998
2.845037	0.728653	1.882388	3.200301	1.496029	2.186302	0.506217	1.4521	-0.461541	-0.483111	0.941689	0.996705	1.353558	3.242232	2.510442	2.511268
2.80239	0.795361	1.873557	3.167786	1.317633	1.771295	0.30865	1.020761	-0.590775	-0.740222	0.784762	0.725271	1.476899	3.47116	2.591599	2.700436
2.749807	0.749932	1.847693	3.140547	1.339392	1.796757	0.346306	1.14897	-0.579155	-0.688013	0.788194	0.713813	1.372218	3.246223	2.523823	2.565546
2.770767	0.83265	1.885664	3.176483	1.33083	1.808246	0.346434	1.159038	-0.75947	-1.011709	0.603532	0.349344	1.295571	3.054327	2.442405	2.398367
2.64396	0.497847	1.646425	2.863024	1.337423	1.80505	0.365648	1.202769	-0.824875	-1.210941	0.511763	0.266023	1.281739	3.072911	2.407598	2.327088
2.622783	0.65965	1.727032	2.840809	1.2502	1.648143	0.261796	1.088765	-0.847787	-1.128939	0.514469	0.245894	1.28307	3.093553	2.40786	2.351839
2.591324	0.497847	1.673808	2.846993	1.285091	1.762865	0.318554	1.204451	-0.876204	-1.13861	0.474457	0.15391	1.238136	2.938714	2.394293	2.27403
2.6019	0.625407	1.716739	2.885027	1.212925	1.619032	0.196296	0.954907	-0.770003	-0.832259	0.629211	0.434023	1.207575	2.90326	2.372616	2.25603
2.487755	0.469161	1.593444	2.744222	1.122817	1.422138	0.149745	0.862037	-0.784237	-0.943848	0.573806	0.384766	1.24196	2.996177	2.406539	2.300195
2.454973	0.53304	1.630956	2.780731	1.106835	1.362943	0.122336	0.834201	-0.911739	-1.148325	0.429711	0.100418	1.249377	3.01417	2.382722	2.273722
2.477523	0.490176	1.680922	2.842307	1.135927	1.456967	0.169351	0.912541	-0.898644	-1.082118	0.465137	0.133539	1.138618	2.86404	2.290809	2.133806
2.497688	0.601252	1.751114	2.945349	1.182429	1.505922	0.131	0.831089	-0.785217	-0.892353	0.573806	0.406873	1.211972	3.014454	2.359682	2.297047
2.509222	0.564516	1.754935	2.95796	1.234165	1.643559	0.205809	1.045984	-0.810471	-0.961674	0.508037	0.333934	1.287301	3.241145	2.394293	2.485166
2.581946	0.789901	1.935803	3.150405	1.255525	1.666837	0.22502	1.017999	-0.794609	-0.970947	0.511288	0.317057	1.413188	3.470811	2.486922	2.746857
2.581946	0.540216	1.923676	3.22233	1.390818	1.879799	0.327515	1.20157	-0.717801	-0.90274	0.550127	0.430124	1.390454	3.452736	2.464433	2.72599
2.613079	0.662457	2.029209	3.309104	1.38303	1.822359	0.290144	1.024894	-0.607277	-0.746471	0.64775	0.632098	1.333114	3.398966	2.40786	2.613534
2.582624	0.450614	1.968989	3.265906	1.449672	1.959559	0.393521	1.174727	-0.528312	-0.592926	0.71066	0.693715	1.25809	3.302589	2.349937	2.563277
2.697635	0.712672	2.150952	3.441359	1.444499	1.884653	0.355576	1.077452	-0.475905	-0.525721	0.728447	0.685197	1.233802	3.26415	2.315484	2.515488
2.562151	0.564516	2.043638	3.236307	1.503053	1.978177	0.449707	1.234736	-0.47999	-0.552845	0.683529	0.642452	1.291761	3.33789	2.31449	2.535758
2.507947	0.493256	2.01707	3.208509	1.473069	1.921395	0.43091	1.20157	-0.541034	-0.688013	0.624088	0.477929	1.232488	3.206077	2.269088	2.49163
2.477523	0.423925	2.027496	3.213625	1.449909	1.850611	0.393301	1.131464	-0.594924	-0.794113	0.55388	0.418527	1.185282	3.16888	2.246451	2.422177
2.371381	0.33425	1.887607	3.059976	1.337646	1.627861	0.290317	0.925973	-0.747283	-1.10141	0.376314	0.120171	1.2762	3.317262	2.302414	2.509138
2.279454	0.210842	1.83897	2.979892	1.321988	1.583598	0.281334	0.967626	-0.746345	-0.945132	0.440281	0.20637	1.111949	2.961246	2.155	2.235274
2.267543	0.23369	1.823708	2.977308	1.255115	1.405955	0.168927	0.770186	-0.847252	-1.132414	0.341102	0.0489440000000001	1.116993	2.95755	2.164915	2.227697
2.092052	0.00437399999999999	1.577781	2.73057	1.173235	1.323351	0.094499	0.666909	-0.913192	-1.171747	0.279254	-0.011366	0.937348	2.714831	2.062587	1.882505
2.050136	0.07015	1.557364	2.697506	1.033957	1.041856	-0.0827100000000001	0.395986	-1.012658	-1.293125	0.214937	-0.141022	0.962022	2.677924	2.062587	1.883241
1.999457	-0.084039	1.483847	2.670986	1.062907	1.107773	-0.064024	0.491649	-1.241696	-1.698861	-0.0212270000000001	-0.56646	0.8834	2.527306	1.982624	1.740594
1.957623	0.0800350000000001	1.506022	2.624268	1.025684	1.121574	-0.064024	0.591123	-1.062701	-1.292066	0.204543	-0.141022	0.804177	2.435761	1.857983	1.515995
1.793232	-0.286477	1.277763	2.427261	0.936591	0.969569	-0.109774	0.500426	-1.215206	-1.541118	0.0813889999999999	-0.400057	0.76448	2.323155	1.823754	1.420653
1.823092	-0.077978	1.349472	2.478201	0.907826	0.917388	-0.174966	0.455702	-1.379952	-1.742393	-0.0419440000000002	-0.676296	0.871172	2.434395	1.903323	1.625712
1.76251	-0.190694	1.267606	2.417587	0.916055	1.002095	-0.20313	0.449225	-1.290929	-1.538679	0.0424470000000001	-0.473689	0.775499	2.304651	1.789851	1.375192
1.721272	-0.161818	1.23557	2.359347	0.790947	0.771857	-0.304593	0.298855	-1.367545	-1.64886	-0.012151	-0.500261	0.84738	2.527113	1.85785	1.557215
1.670758	-0.309631	1.174435	2.318382	0.84193	0.863986	-0.239612	0.459135	-1.541793	-1.94614	-0.167262	-0.824136	0.761669	2.378792	1.790126	1.419956
1.76227	-0.104676	1.330462	2.464833	0.848277	0.886901	-0.28501	0.347167	-1.379427	-1.671954	-0.0328549999999999	-0.539054	0.726034	2.36014	1.733528	1.329485
1.701943	-0.255212	1.237087	2.388613	0.790184	0.794355	-0.303845	0.303917	-1.430042	-1.782954	-0.0788790000000001	-0.590762	0.834831	2.564343	1.778677	1.51177
1.649704	-0.350691	1.208344	2.343612	0.825838	0.85857	-0.24758	0.441871	-1.352962	-1.586096	0.030964	-0.452372	0.837952	2.584386	1.767217	1.60634
1.752443	-0.169935	1.32702	2.462462	0.855513	0.913106	-0.238622	0.444715	-1.367027	-1.602602	0.00477400000000006	-0.521768	0.765835	2.473141	1.688272	1.469784
1.659555	-0.19516	1.261047	2.355775	0.805142	0.849616	-0.294828	0.322553	-1.493443	-1.914942	-0.126097	-0.680975	0.644129	2.323981	1.575686	1.286453
1.618893	-0.197997	1.272893	2.327913	0.804442	0.875017	-0.257681	0.432185	-1.338743	-1.566328	0.0471309999999998	-0.442445	0.569691	2.175556	1.497182	1.125748
1.730934	-0.00255100000000003	1.400633	2.480698	0.782466	0.806787	-0.303507	0.299253	-1.439529	-1.836394	-0.094409	-0.720343	0.678336	2.286305	1.553221	1.239623
1.628758	-0.093105	1.331355	2.360855	0.796756	0.847107	-0.247984	0.395175	-1.364747	-1.698861	0.00241300000000022	-0.493028	0.53549	2.120754	1.441111	1.014369
1.618325	-0.162216	1.246711	2.318649	0.760503	0.781345	-0.276186	0.384208	-1.403648	-1.73974	-0.0328549999999999	-0.614384	0.714515	2.267691	1.598224	1.329485
1.598583	-0.443357	1.084911	2.24695	0.781874	0.805669	-0.229453	0.409307	-1.404745	-1.824435	-0.0782319999999999	-0.738947	0.604149	2.010818	1.475173	1.057123
1.649095	-0.207362	1.142918	2.226637	0.672954	0.501866	-0.340791	0.156065	-1.338743	-1.744797	-0.05518	-0.69933	0.738212	2.12031	1.553298	1.216077
1.506808	-0.482021	0.92846	1.977767	0.635639	0.378667	-0.321812	0.182273	-1.464837	-1.943648	-0.252366	-1.064731	0.668516	2.047426	1.429937	1.037099
1.547161	-0.207362	1.046949	2.035551	0.584468	0.270917	-0.339693	0.178065	-1.563321	-1.948386	-0.331942	-1.201063	0.678687	1.937046	1.385196	0.923246
1.475969	-0.336202	0.986412	1.97574	0.497448	0.139664	-0.468621	-0.111713	-1.535169	-1.750496	-0.240237	-0.931874	0.497359	1.700009	1.206954	0.631547
1.526708	-0.044644	1.076168	2.011756	0.490557	0.247135	-0.505788	-0.124066	-1.664768	-1.920761	-0.319733	-0.931141	0.520443	1.918764	1.240579	0.765323
1.455728	-0.186347	0.998133	1.992448	0.497086	0.24377	-0.513645	-0.0696290000000001	-1.786392	-2.149699	-0.41759	-1.051274	0.506981	2.049361	1.219632	0.811222
1.567133	-0.00534899999999999	1.162299	2.187167	0.447162	0.247702	-0.560887	-0.154539	-1.636185	-1.791703	-0.229282	-0.662757	0.483825	2.102234	1.218676	0.877121
1.456106	-0.401804	0.918542	2.020879	0.563304	0.526419	-0.432351	0.102315	-1.672873	-1.972166	-0.323326	-0.737705	0.543739	2.305185	1.263294	1.057143
1.557395	-0.150281	1.033328	2.148393	0.506031	0.436242	-0.506388	-0.0352509999999999	-1.683526	-2.019342	-0.353394	-0.85582	0.699604	2.584024	1.375314	1.374689
1.577521	-0.297282	1.011753	2.194267	0.549843	0.556787	-0.442352	0.0322900000000002	-1.736872	-2.170173	-0.425197	-0.992344	0.411989	2.21265	1.174436	0.989531
1.48571	-0.404725	0.91816	2.068523	0.607151	0.726873	-0.340291	0.216069	-1.534392	-1.862031	-0.21189	-0.55972	0.448083	2.323277	1.196392	1.079698
1.475651	-0.45826	0.922109	2.043455	0.542136	0.581861	-0.395984	0.123824	-1.497588	-1.792702	-0.220144	-0.594777	0.414742	2.157685	1.129107	0.992218
1.608249	-0.252067	1.10355	2.146537	0.506618	0.479078	-0.433408	-0.0114270000000001	-1.460725	-1.725042	-0.190827	-0.554584	0.366801	2.084069	1.095843	0.924715
1.628952	-0.25831	1.085981	2.057497	0.447319	0.327702	-0.45109	-0.0537419999999998	-1.488183	-1.720648	-0.17861	-0.54519	0.332547	2.029827	1.084793	0.81402
1.649934	-0.380974	1.046949	2.02978	0.374506	0.154008	-0.524165	-0.219979	-1.503061	-1.736836	-0.193858	-0.629491	0.340126	1.919478	1.096662	0.74279
1.701147	-0.300304	1.072329	2.002098	0.504627	0.377188	-0.395097	0.0517880000000001	-1.625359	-1.967768	-0.319175	-0.917905	0.390946	1.900648	1.106922	0.744469
1.691358	-0.34215	1.045072	1.914746	0.402868	0.165415	-0.459514	-0.078211	-1.592191	-1.865546	-0.284027	-0.821942	0.391325	1.901282	1.095834	0.633512
1.639655	-0.443562	1.015608	1.87708	0.360719	0.064508	-0.506512	-0.142941	-1.715035	-2.098137	-0.382365	-1.073802	0.305932	1.681852	1.029542	0.409543
1.701147	-0.323696	1.091818	1.965685	0.40367	0.181861	-0.45137	-0.0487410000000001	-1.801284	-2.301282	-0.495705	-1.297893	0.556006	2.028873	1.229612	0.832257
1.630975	-0.350691	1.027809	1.888453	0.309152	0.00946700000000011	-0.551943	-0.26388	-1.688636	-2.056522	-0.337264	-0.971352	0.424434	1.882199	1.118346	0.608889
1.54846	-0.407831	0.98832	1.878428	0.294383	0.047865	-0.542362	-0.2367	-1.797109	-2.286094	-0.453877	-1.202759	0.436478	1.882142	1.107294	0.631202
1.589265	-0.375071	1.031467	1.978351	0.352398	0.18021	-0.496844	-0.152976	-1.775562	-2.299997	-0.475933	-1.186056	0.380912	1.847937	1.051613	0.546869
1.599035	-0.216168	1.074238	2.033758	0.388938	0.300815	-0.478756	-0.100966	-1.548934	-1.902768	-0.216079	-0.697455	0.437872	1.992227	1.084804	0.588131
1.497222	-0.368967	1.001955	1.990688	0.417686	0.379763	-0.423693	0.044174	-1.621664	-2.106405	-0.340525	-0.92345	0.700641	2.415696	1.296196	1.012108
1.537111	-0.328184	1.048998	2.085111	0.417212	0.350819	-0.441289	-0.062887	-1.519696	-1.996679	-0.285927	-0.835086	0.591856	2.230827	1.207327	0.832257
1.620103	-0.303275	1.09396	2.195568	0.489683	0.483329	-0.367511	0.032159	-1.363584	-1.753503	-0.072248	-0.49374	0.567251	2.212834	1.185488	0.765234
1.649488	-0.23896	1.107538	2.211991	0.482492	0.497267	-0.340103	0.018164	-1.264375	-1.685789	-0.00563199999999997	-0.36077	0.51946	2.175754	1.162927	0.653425
1.671023	-0.398916	1.031467	2.18457	0.482717	0.484287	-0.321812	-0.013992	-1.217765	-1.704834	-0.00316099999999997	-0.444212	0.543411	2.175924	1.196392	0.765234
1.824504	-0.162216	1.209406	2.371906	0.585627	0.609709	-0.249254	0.0982829999999999	-1.106345	-1.588316	0.05582	-0.400057	0.665244	2.304823	1.295931	0.945159
1.743236	-0.347894	1.105728	2.24604	0.621834	0.701536	-0.165757	0.174611	-1.174256	-1.715248	0.032125	-0.478662	0.723691	2.379613	1.374772	1.012425
1.824504	-0.126178	1.248644	2.338147	0.607481	0.635517	-0.193827	0.096568	-1.134926	-1.716692	0.0509770000000001	-0.4981	0.58065	2.193938	1.284847	0.877311
1.846448	-0.206199	1.210115	2.33761	0.650741	0.726873	-0.110198	0.252981	-1.072013	-1.64886	0.09904	-0.424661	0.62794	2.175628	1.296106	0.922029
1.826043	-0.218864	1.161044	2.309766	0.681237	0.74605	-0.09229	0.219056	-0.943733	-1.448603	0.192441	-0.298894	0.618234	2.157685	1.295899	0.94548
1.735318	-0.289017	1.118594	2.254184	0.643249	0.60588	-0.128642	0.168337	-1.006852	-1.63101	0.096738	-0.413578	0.677389	2.286213	1.329386	1.057279
1.702857	-0.129228	1.195707	2.299183	0.557382	0.479078	-0.194181	0.0601319999999999	-0.964719	-1.569058	0.130528	-0.372125	0.823279	2.434653	1.351721	1.307733
1.642264	-0.216065	1.201906	2.31225	0.527307	0.382216	-0.25869	-0.0976109999999999	-1.02146	-1.627154	0.09904	-0.424661	0.667262	2.176436	1.206968	1.104279
1.498851	-0.150281	1.168356	2.22079	0.592633	0.51411	-0.20313	0.027294	-1.111387	-1.828981	0.0229999999999999	-0.554163	0.605149	2.101959	1.106923	0.967477
1.407845	-0.122802	1.102055	2.17488	0.49138	0.33029	-0.304874	-0.159783	-1.248715	-2.079296	-0.131442	-0.858533	0.557264	2.065466	1.062619	0.900308
1.247326	-0.400044	0.921466	2.04361	0.549123	0.408551	-0.258621	0.0153859999999999	-1.21283	-1.962379	-0.081358	-0.756058	0.486238	1.882687	0.952191	0.789069
1.206525	-0.389447	0.938417	2.100103	0.51181	0.364721	-0.29468	-0.096388	-1.196992	-1.881022	-0.029317	-0.678228	0.509454	1.918834	0.94108	0.83333
1.165477	-0.222357	1.009858	2.132889	0.527652	0.423415	-0.332392	-0.146412	-1.212183	-1.965197	-0.025542	-0.629491	0.521878	1.937315	0.875141	0.811621
1.09598	-0.249281	1.019723	2.148393	0.477298	0.333224	-0.36017	-0.188099	-1.227653	-2.000287	-0.0691710000000001	-0.727559	0.53335	1.992227	0.853063	0.811179
1.147596	-0.164574	1.12384	2.248175	0.528024	0.451954	-0.304949	-0.107412	-1.254649	-2.063895	-0.0859449999999999	-0.778455	0.556006	1.992023	0.830866	0.809855
1.288197	0.130578	1.337607	2.470953	0.622733	0.624776	-0.231134	-0.00960799999999984	-1.215206	-2.114953	-0.0782319999999999	-0.82426	0.737901	2.194	0.963333	1.080356
1.20925	-0.07644	1.228577	2.358151	0.636526	0.608345	-0.230757	-0.055346	-1.04962	-1.759906	0.130158	-0.454697	0.68118	2.1408	0.898328	0.994269
1.239937	-0.021764	1.289646	2.410264	0.571123	0.422723	-0.313867	-0.24875	-1.070593	-1.83741	0.0767599999999999	-0.606899	0.876307	2.456878	1.020663	1.313432
1.238654	-0.122802	1.310256	2.442999	0.709762	0.622606	-0.184694	-0.00150600000000001	-1.060876	-1.765373	0.088714	-0.618469	0.851197	2.40012	1.00926	1.266468
1.289822	-0.00829600000000008	1.359535	2.45875	0.733106	0.695455	-0.157188	0.026162	-1.174903	-2.123559	-0.0437699999999999	-0.822167	0.9127	2.475063	1.098004	1.380764
1.271612	-0.184808	1.259227	2.387475	0.718333	0.627976	-0.1757	-0.022829	-1.151222	-2.008178	-0.021876	-0.777513	0.730083	2.270439	0.997888	1.1518
1.299223	-0.179914	1.257488	2.377507	0.775969	0.731614	-0.0643609999999999	0.179654	-1.149382	-1.991758	-0.0249590000000002	-0.826063	0.813435	2.342883	1.130169	1.308771
1.382214	-0.21643	1.23382	2.386347	0.81293	0.758947	-0.073677	0.133975	-1.166361	-1.979008	-0.0268460000000001	-0.766288	0.814868	2.343633	1.174837	1.310066
1.40097	-0.112819	1.238754	2.383605	0.688609	0.518265	-0.212608	-0.0923400000000001	-1.126839	-1.873509	-0.0205660000000001	-0.685341	0.827143	2.436574	1.241559	1.401348
1.502597	-0.0243040000000001	1.299856	2.418761	0.745923	0.634851	-0.110425	0.15767	-1.154334	-1.840652	-0.00511700000000026	-0.649906	0.757343	2.327545	1.275659	1.314434
1.623906	0.098303	1.364434	2.508583	0.688213	0.503951	-0.221713	-0.0976109999999999	-1.227653	-1.988062	-0.0691710000000001	-0.72603	0.680277	2.176436	1.27413	1.195513
1.622713	0.0538729999999999	1.250631	2.367825	0.702953	0.518265	-0.221713	-0.0166929999999998	-1.228202	-1.940908	-0.0956619999999999	-0.702502	0.789856	2.39844	1.419303	1.40064
1.550565	-0.185406	1.067929	2.210763	0.622	0.380945	-0.295092	-0.156069	-1.240648	-1.85196	-0.0400199999999999	-0.668155	0.644129	2.176436	1.407844	1.217789
1.672885	-0.0425580000000001	1.127039	2.288004	0.571123	0.302034	-0.359638	-0.253407	-1.22525	-1.744797	-0.00613700000000006	-0.626143	0.800753	2.360661	1.553313	1.46733
1.692533	-0.0292750000000001	1.094969	2.245736	0.615004	0.408551	-0.332133	-0.120989	-1.302193	-1.855879	-0.06257	-0.697455	0.608019	2.102758	1.452346	1.14985
1.672885	-0.102278	1.027483	2.154194	0.505848	0.237417	-0.405652	-0.20169	-1.376493	-1.992866	-0.129758	-0.718526	0.799938	2.434485	1.631905	1.466881
1.782906	0.154735	1.166495	2.28103	0.513551	0.318956	-0.378428	-0.0638890000000001	-1.426549	-1.972166	-0.178059	-0.814264	0.654352	2.175509	1.553252	1.261649
1.887982	0.117555	1.184673	2.344989	0.519118	0.378153	-0.395662	-0.083748	-1.400543	-1.949415	-0.178059	-0.779515	0.629716	2.13872	1.586999	1.216407
1.885316	0.172946	1.168356	2.282323	0.484058	0.370774	-0.424254	-0.117784	-1.351116	-1.83741	-0.112117	-0.631462	0.748045	2.343967	1.66665	1.39761
1.907117	0.10632	1.128717	2.217999	0.482968	0.405569	-0.414412	-0.079644	-1.389488	-1.881022	-0.158751	-0.741267	0.785486	2.453206	1.756339	1.511272
1.988031	0.167043	1.188271	2.351119	0.534805	0.515407	-0.350579	0.04256	-1.400543	-1.973111	-0.216625	-0.838408	0.803108	2.417463	1.744857	1.495472
2.083156	0.251255	1.244118	2.440812	0.59352	0.611922	-0.314015	0.0982829999999999	-1.356093	-1.844191	-0.149762	-0.698086	0.84616	2.564569	1.812778	1.671773
2.070702	0.279624	1.284745	2.442999	0.615577	0.680112	-0.240318	0.232448	-1.241696	-1.647409	-0.05677	-0.463553	0.932741	2.769791	1.891742	1.856996
2.114165	0.248985	1.329152	2.528376	0.571484	0.557514	-0.295561	0.094886	-1.187337	-1.590281	-0.035239	-0.48278	0.959424	2.751853	1.880386	1.928514
2.174202	0.395461	1.456527	2.646212	0.696409	0.762207	-0.175676	0.285462	-1.148727	-1.591168	-0.0443560000000001	-0.484472	0.886122	2.639458	1.823747	1.836563
2.10307	0.276816	1.371356	2.505057	0.723671	0.780725	-0.165485	0.279377	-1.190293	-1.742393	-0.115084	-0.527829	0.938489	2.753765	1.858085	1.979775
2.06054	0.231858	1.342351	2.468472	0.659754	0.655293	-0.212647	0.200192	-1.084467	-1.457248	0.010996	-0.359261	0.926149	2.810502	1.858085	2.003316
2.153577	0.408217	1.456527	2.592548	0.659337	0.652028	-0.212497	0.162675	-1.060226	-1.455777	0.0126950000000001	-0.317485	0.694385	2.50982	1.722159	1.699135
2.185762	0.453096	1.447957	2.586537	0.665766	0.674978	-0.230544	0.102315	-1.074601	-1.430978	0.052792	-0.217079	0.725015	2.571209	1.768207	1.77788
2.134095	0.334653	1.361073	2.48801	0.629179	0.608345	-0.239854	0.119182	-1.101314	-1.471767	0.00797399999999993	-0.28546	0.70884	2.604974	1.80153	1.772904
2.164277	0.323782	1.340626	2.510989	0.65106	0.634208	-0.193503	0.219086	-1.104263	-1.439968	0.0046529999999998	-0.324876	0.657717	2.453773	1.789873	1.675901
2.216559	0.439729	1.376347	2.517102	0.687341	0.728117	-0.175088	0.266855	-1.165352	-1.652834	-0.0956619999999999	-0.489132	0.770245	2.586153	1.892206	1.887918
2.206093	0.413563	1.286298	2.411452	0.614655	0.582538	-0.221455	0.254563	-1.140887	-1.560505	-0.0185169999999999	-0.296804	0.707148	2.566004	1.880469	1.792303
2.194171	0.40133	1.288366	2.352408	0.584994	0.51411	-0.258116	0.219086	-1.269321	-1.733683	-0.154993	-0.525668	0.56067	2.286619	1.767208	1.537639
2.236927	0.300218	1.262514	2.350871	0.563156	0.433662	-0.313307	0.103818	-1.178849	-1.515539	-0.0560710000000002	-0.316307	0.641861	2.415892	1.835341	1.717846
2.142078	0.267174	1.152859	2.195568	0.490017	0.312565	-0.413924	-0.100457	-1.13817	-1.430978	-0.014656	-0.181762	0.597691	2.379506	1.789815	1.630247
2.080872	0.033042	1.005557	2.08207	0.468239	0.272858	-0.413924	-0.067028	-1.342713	-1.808745	-0.218351	-0.618469	0.571122	2.397315	1.81253	1.604577
2.162719	0.185298	1.113841	2.185862	0.454168	0.221468	-0.432681	-0.078211	-1.303896	-1.629787	-0.1726	-0.527829	0.716036	2.564396	1.903164	1.811463
2.173962	0.134884	1.120322	2.204775	0.447654	0.250189	-0.46988	-0.169746	-1.376493	-1.771692	-0.253504	-0.617259	0.652149	2.509696	1.836416	1.717659
2.152487	0.303756	1.164656	2.202674	0.454966	0.263636	-0.460744	-0.168164	-1.367027	-1.787078	-0.248041	-0.52585	0.689255	2.676458	1.869831	1.85578
2.184399	0.260848	1.17609	2.272292	0.462282	0.330991	-0.414911	-0.08739	-1.430042	-1.877545	-0.295679	-0.599162	0.634824	2.659951	1.823768	1.769859
2.225076	0.279624	1.259256	2.393401	0.578123	0.541187	-0.322609	0.0700970000000001	-1.340569	-1.722971	-0.231271	-0.454332	0.557895	2.58298	1.767596	1.695296
2.164015	-0.102278	1.10006	2.303752	0.701899	0.753489	-0.22982	0.227291	-1.18797	-1.453088	-0.0528729999999999	-0.139164	0.538804	2.641596	1.767243	1.72413
2.193975	0.075989	1.186466	2.373952	0.622934	0.557514	-0.286126	0.0763309999999999	-1.187337	-1.523951	-0.0745359999999999	-0.14461	0.668516	2.90214	1.880419	1.951215
2.236159	0.150581	1.301535	2.474538	0.658411	0.62127	-0.239739	0.151445	-1.25363	-1.629787	-0.125448	-0.296804	0.427608	2.509233	1.699557	1.536989
2.287362	0.169968	1.32212	2.524433	0.790011	0.821639	-0.147071	0.330201	-1.114352	-1.40347	-0.0017640000000001	-0.0724959999999999	0.534704	2.65781	1.812597	1.742365
2.225484	0.00437399999999999	1.204867	2.424793	0.674072	0.665666	-0.221713	0.162675	-1.102382	-1.425416	0.00731099999999985	-0.0724959999999999	0.608917	2.808698	1.880371	1.813991
2.27691	0.167043	1.286545	2.48324	0.629524	0.568294	-0.27661	-0.011063	-1.113229	-1.453088	0.0327220000000001	-0.137262	0.76329	2.938852	2.005544	2.042026
2.329908	0.132255	1.264189	2.474538	0.768043	0.781988	-0.128642	0.282299	-1.214061	-1.748849	-0.101315	-0.38624	0.726699	2.80725	2.005544	1.903062
2.349759	0.245934	1.300212	2.429819	0.614826	0.434909	-0.2673	-0.0263669999999999	-1.166361	-1.650248	-0.047037	-0.309832	0.633793	2.621919	1.937087	1.652691
2.277103	-0.0236019999999999	1.139238	2.297897	0.614491	0.420779	-0.230287	0.086951	-1.329788	-1.967768	-0.182284	-0.633709	0.583274	2.379253	1.846484	1.4224
2.349958	0.169968	1.239196	2.351119	0.628435	0.457848	-0.229642	0.079821	-1.174903	-1.568211	0.030964	-0.292962	0.497359	2.175506	1.790362	1.238563
2.297629	0.136539	1.168356	2.187167	0.562752	0.271844	-0.303507	-0.0348910000000001	-1.354089	-1.923298	-0.164209	-0.618469	0.653105	2.378697	1.892553	1.39733
2.245583	0.078986	1.09396	2.125804	0.460827	0.0730860000000002	-0.423049	-0.229909	-1.392352	-1.899172	-0.153219	-0.687463	0.738212	2.397163	1.91498	1.489112
2.162901	-0.210314	0.943805	2.027183	0.424723	0.033655	-0.478112	-0.325696	-1.313977	-1.725042	-0.063159	-0.53166	0.450651	1.955374	1.666068	1.013854
2.090631	-0.182685	0.913182	1.892963	0.388667	-0.082991	-0.515061	-0.356206	-1.390102	-1.835314	-0.147333	-0.641648	0.591676	2.158397	1.701304	1.147669
2.007448	-0.135173	0.920371	1.821909	0.287758	-0.35534	-0.643126	-0.596246	-1.53666	-2.043426	-0.294564	-0.950848	0.592505	2.157258	1.655449	1.079897
1.956706	-0.247681	0.861051	1.786742	0.294749	-0.343226	-0.652197	-0.59761	-1.587179	-2.109023	-0.340009	-1.018557	0.700878	2.286196	1.689247	1.261093
2.069498	0.0519540000000001	1.002494	1.946837	0.323435	-0.240696	-0.669965	-0.666007	-1.461462	-1.817309	-0.13353	-0.631462	0.497067	2.028522	1.531567	1.012692
1.966867	-0.133613	0.909716	1.88089	0.41782	-0.017126	-0.57907	-0.456911	-1.409998	-1.75189	-0.0785529999999999	-0.506942	0.534339	2.21274	1.553533	1.149328
2.049264	0.0800350000000001	1.046048	2.056894	0.483882	0.169669	-0.460502	-0.256355	-1.282813	-1.481371	0.081655	-0.22873	0.596282	2.380143	1.586954	1.310811
2.060796	0.0210640000000002	1.069972	2.151868	0.528424	0.226086	-0.396689	-0.183332	-1.449155	-1.997476	-0.152308	-0.629731	0.569691	2.304715	1.564834	1.444352
2.173962	0.476721	1.276072	2.342399	0.572502	0.226833	-0.369183	-0.297333	-1.337421	-1.973111	-0.0465899999999999	-0.459961	0.488208	2.157932	1.463501	1.493677
2.111648	0.561456	1.220184	2.26753	0.644418	0.315489	-0.248929	-0.17857	-1.300953	-2.084699	0.00130000000000008	-0.496758	0.571946	2.249996	1.519552	1.653457
2.101695	0.590585	1.199812	2.234891	0.688213	0.341157	-0.193373	-0.129841	-1.286563	-2.175936	-0.0282929999999999	-0.615637	0.727436	2.453092	1.688255	1.950609
2.122795	0.487723	1.245714	2.303752	0.799458	0.505452	-0.09229	0.0644130000000001	-1.226493	-2.17234	-0.0716650000000001	-0.735862	0.8481	2.583049	1.801185	2.135572
2.226738	0.787252	1.475215	2.500067	0.822198	0.547856	-0.08308	-0.0283439999999999	-1.012098	-1.766582	0.158178	-0.363179	0.829928	2.549643	1.812881	2.074085
2.176613	0.590482	1.399396	2.385229	0.908632	0.676335	0.047172	0.256178	-1.025179	-1.836394	0.100883	-0.458127	1.142681	2.996494	2.028096	2.465206
2.195633	0.65965	1.504268	2.423565	0.878376	0.59351	0.0194900000000001	0.199165	-1.037119	-1.815544	0.0807709999999999	-0.554584	1.095239	2.846892	2.005495	2.373612
2.15602	0.441201	1.427951	2.404491	0.812729	0.460659	-0.0734639999999999	-0.0263669999999999	-1.116791	-1.963818	-0.00806200000000001	-0.687463	1.008228	2.733327	1.93723	2.254398
2.060298	0.361672	1.373219	2.323221	0.732884	0.344485	-0.129411	-0.0807549999999999	-1.089358	-1.720648	0.0261309999999999	-0.549073	0.813895	2.39844	1.620753	1.813991
2.042084	0.0624	1.294949	2.029321	0.680482	0.208067	-0.101284	-0.0263669999999999	-1.245688	-1.767237	-0.0932029999999999	-0.812265	0.972227	2.491467	1.564828	2.022966
2.196545	0.271266	1.487171	2.034014	0.615781	0.0798509999999999	-0.203416	-0.161522	-1.305412	-1.762764	-0.104006	-0.804956	0.827143	2.233209	1.419174	1.769859
2.041103	-0.021764	1.277763	1.765208	0.498891	-0.078365	-0.28642	-0.230379	-1.431958	-1.896465	-0.178889	-0.911993	0.802111	2.232774	1.396631	1.699947
1.925841	-0.123077	1.170237	1.674434	0.454793	-0.0796489999999999	-0.295561	-0.184933	-1.584228	-2.108001	-0.313875	-1.209042	0.700222	1.955885	1.307412	1.534104
1.886974	-0.159401	1.103376	1.667745	0.317333	-0.236461	-0.461161	-0.489396	-1.65584	-2.213153	-0.352239	-1.286623	0.608917	1.792826	1.20704	1.380764
1.720645	-0.137922	0.98832	1.538453	0.274544	-0.23313	-0.479634	-0.384226	-1.806619	-2.452892	-0.480299	-1.478847	0.616249	1.845891	1.218198	1.420031
1.578744	-0.239695	0.881592	1.453981	0.143701	-0.432659	-0.607489	-0.605514	-1.88063	-2.562842	-0.546168	-1.640106	0.511625	1.591871	1.106987	1.19684
1.547752	-0.189336	0.850212	1.493347	0.172523	-0.35534	-0.598295	-0.540787	-1.842479	-2.433023	-0.520075	-1.554095	0.581817	1.663788	1.173503	1.285331
1.476147	-0.068956	0.83069	1.489114	0.115048	-0.419503	-0.698707	-0.670115	-1.824362	-2.487688	-0.519204	-1.519964	0.519088	1.66538	1.174617	1.193202
1.487223	0.085534	0.834819	1.560543	0.0141180000000001	-0.499337	-0.762207	-0.770389	-1.923781	-2.597712	-0.548285	-1.610084	0.390946	1.538137	1.040467	0.948741
1.568728	0.237331	0.957363	1.741987	0.0644680000000001	-0.394831	-0.735108	-0.688098	-1.912927	-2.594552	-0.556334	-1.641184	0.508874	1.736479	1.151341	1.148872
1.507461	0.0519540000000001	0.828771	1.667488	0.186596	-0.109004	-0.579656	-0.388033	-1.803097	-2.390428	-0.421955	-1.341408	0.511218	1.774124	1.151334	1.106825
1.589532	0.300826	0.949386	1.787385	0.172381	-0.133941	-0.570773	-0.335308	-1.726658	-2.304776	-0.386902	-1.346726	0.546465	1.846804	1.195723	1.173952
1.660998	0.200722	0.93393	1.82761	0.250974	0.0203770000000001	-0.460215	-0.165893	-1.750463	-2.419124	-0.463915	-1.496734	0.640247	1.955245	1.262684	1.306665
1.670506	0.258137	0.945449	1.842507	0.251583	-0.03041	-0.487878	-0.309084	-1.551034	-2.10734	-0.228318	-1.077075	0.53335	1.84588	1.173503	1.172127
1.681903	0.179632	0.89512	1.798824	0.215878	-0.159899	-0.515749	-0.370028	-1.591062	-2.235817	-0.319175	-1.265853	0.7017	2.139023	1.273635	1.398462
1.711707	0.139597	0.902612	1.828907	0.330965	0.00845900000000022	-0.386841	-0.149221	-1.592726	-2.209211	-0.307811	-1.241017	0.665534	2.083633	1.229089	1.398081
1.774915	0.134884	0.938417	1.88089	0.345519	0.0208139999999999	-0.404965	-0.247825	-1.452496	-2.03616	-0.187706	-1.013247	0.690167	2.175778	1.251337	1.490333
1.835138	0.34635	1.035211	1.9507	0.296399	-0.104988	-0.424402	-0.310814	-1.38752	-1.973993	-0.152308	-0.945964	0.628591	2.12031	1.206954	1.420172
1.856489	0.237331	1.027809	1.955189	0.345816	-0.00383299999999998	-0.313563	-0.128445	-1.341136	-1.942309	-0.146107	-0.963255	0.534704	1.919384	1.140264	1.263542
1.856167	0.325034	1.02159	1.924379	0.426077	0.116145	-0.240053	-0.00800400000000001	-1.252527	-1.854634	-0.081358	-0.896844	0.750396	2.230931	1.284751	1.650286
1.866539	0.337495	0.969089	1.888453	0.412218	0.0657920000000001	-0.212608	0.0474969999999999	-1.186682	-1.769837	-0.0654049999999999	-0.869785	0.618591	2.084069	1.218002	1.4224
1.878319	0.242434	0.896264	1.836722	0.346487	-0.067555	-0.295489	-0.184933	-1.140385	-1.713742	-0.0400199999999999	-0.852356	0.726358	2.157202	1.295893	1.604121
1.898023	0.276785	0.881592	1.826323	0.476565	0.194674	-0.129081	0.154493	-1.073986	-1.611317	0.0395530000000002	-0.777786	0.629407	2.010181	1.240233	1.466178
1.897683	0.279624	0.846503	1.75028	0.389559	-0.055401	-0.240053	-0.024834	-1.289184	-2.060015	-0.205877	-1.235362	0.845438	2.304722	1.396565	1.763642
1.979558	0.453524	0.970938	1.823231	0.368014	-0.107962	-0.267824	-0.104195	-1.136287	-1.748849	-0.0180819999999999	-0.928627	0.774453	2.138876	1.351672	1.627192
2.084234	0.57461	1.000707	1.842965	0.447654	0.0494129999999999	-0.156858	0.073149	-1.11539	-1.759906	-0.0205660000000001	-0.929105	0.785486	2.13879	1.374189	1.625792
2.134411	0.6712	1.02159	1.852158	0.367222	-0.16284	-0.267426	-0.129841	-1.163682	-1.835314	-0.035239	-1.015058	0.821526	2.230909	1.418877	1.671647
2.1864	0.662457	1.045072	1.87708	0.360719	-0.21284	-0.286216	-0.169746	-1.073986	-1.634296	0.0864739999999999	-0.835086	0.797663	2.157106	1.407598	1.60315
2.289327	0.782359	1.138782	2.00449	0.455332	-0.0415380000000001	-0.203335	-0.0216729999999999	-1.075768	-1.720648	0.0613000000000001	-0.84521	0.776288	2.139444	1.396422	1.560083
2.301147	0.694065	1.127446	1.996364	0.506031	0.0499720000000001	-0.138399	0.105353	-1.001173	-1.602602	0.141241	-0.631621	0.958513	2.472439	1.564509	1.905856
2.383613	0.90291	1.254726	2.140856	0.521085	0.117361	-0.092244	0.159306	-0.87184	-1.40347	0.243667	-0.415571	0.801188	2.287415	1.441183	1.74415
2.425772	0.83543	1.312065	2.233136	0.652601	0.32961	0.00980400000000015	0.342968	-0.950456	-1.602602	0.151019	-0.61228	0.909795	2.472769	1.530826	1.929231
2.341846	0.604051	1.162839	2.136823	0.652385	0.327702	0.00054299999999996	0.223855	-0.860897	-1.491015	0.216863	-0.482975	0.969566	2.639458	1.60941	2.136097
2.38329	0.683851	1.23557	2.215002	0.734061	0.438404	0.0936049999999999	0.382512	-0.836647	-1.509809	0.199974	-0.515336	1.0073	2.696363	1.665807	2.231567
2.435977	0.776738	1.36964	2.335523	0.720589	0.389004	0.0752489999999999	0.245824	-0.768822	-1.476158	0.202195	-0.537095	0.968483	2.65768	1.676964	2.251514
2.468009	0.805935	1.389968	2.37521	0.748862	0.412077	0.0936049999999999	0.232448	-0.617213	-1.197774	0.348998	-0.246503	0.984554	2.716018	1.722313	2.280633
2.425772	0.614376	1.267606	2.288184	0.85063	0.609016	0.25242	0.522477	-0.798312	-1.55915	0.150351	-0.670252	0.997948	2.7176	1.801653	2.329138
2.582278	0.872749	1.442843	2.474758	0.763672	0.385771	0.130922	0.232448	-0.641997	-1.315276	0.250446	-0.519579	0.9811	2.695006	1.83506	2.345632
2.487438	0.619785	1.269347	2.317348	0.807365	0.490394	0.149582	0.295285	-0.578096	-1.246681	0.309155	-0.403781	0.822621	2.452805	1.767238	2.06499
2.50739	0.6712	1.264692	2.305779	0.778762	0.399305	0.14035	0.304451	-0.590775	-1.201231	0.337959	-0.421297	0.860342	2.415893	1.835071	2.136097
2.476886	0.387052	1.145696	2.218217	0.85087	0.501866	0.224335	0.474519	-0.607277	-1.212585	0.334681	-0.441947	0.897952	2.379506	1.89177	2.138082
2.434727	0.469089	1.149234	2.15097	0.816155	0.428862	0.159208	0.374977	-0.760801	-1.509809	0.209778	-0.668155	0.923966	2.454443	1.948692	2.186033
2.413959	0.463548	1.125633	2.107731	0.791817	0.435564	0.196276	0.508792	-0.903197	-1.747951	0.023441	-1.005263	0.887063	2.399193	1.926016	2.047362
2.476304	0.702398	1.251024	2.231814	0.690719	0.268872	0.056738	0.310336	-0.850143	-1.511336	0.141241	-0.820158	0.985068	2.510582	2.02842	2.186946
2.351735	0.495238	1.084911	2.051022	0.674951	0.318219	0.037836	0.334884	-0.838987	-1.524581	0.127344	-0.7709	1.041827	2.58298	2.085	2.298106
2.382135	0.723831	1.142918	2.09229	0.527143	0.0739989999999999	-0.101547	0.117699	-0.90014	-1.582291	0.071647	-0.883458	1.003525	2.508759	2.039526	2.157294
2.225707	0.319154	0.959218	1.962995	0.492157	-0.000342999999999982	-0.147925	0.0830759999999999	-1.028137	-1.758384	-0.030295	-1.077902	0.775499	2.102033	1.835071	1.742893
2.215493	0.502238	1.037116	1.990688	0.462846	0.025706	-0.166427	0.050948	-1.07685	-1.834173	-0.073421	-1.128858	0.714515	2.028506	1.77851	1.696061
2.10248	0.284353	0.862777	1.815459	0.345124	-0.17645	-0.258542	-0.067028	-1.143456	-1.890309	-0.133145	-1.126841	0.750396	2.138712	1.789823	1.696543
2.100837	0.377153	0.904539	1.872854	0.281637	-0.262322	-0.332608	-0.110995	-1.104263	-1.715248	-0.0704400000000001	-1.026641	0.688739	2.065327	1.756135	1.626152
2.154393	0.302767	0.921466	1.937217	0.352799	-0.0574349999999999	-0.258747	0.00575599999999998	-1.125103	-1.770796	-0.085785	-1.043978	0.824402	2.305166	1.835098	1.906615
2.205047	0.563603	1.046949	2.043455	0.310589	-0.131581	-0.351016	-0.180035	-0.974515	-1.471767	0.088714	-0.627957	0.82109	2.379114	1.835445	1.925092
2.112366	0.240147	0.903222	1.941057	0.39653	-0.00434099999999993	-0.240267	0.036424	-1.153868	-1.853328	-0.118902	-1.028557	0.778578	2.36274	1.790184	1.841002
2.174202	0.367706	1.080339	2.101987	0.396691	-0.03041	-0.240318	-0.076747	-0.977001	-1.488102	0.0638030000000001	-0.72603	0.749236	2.304833	1.755998	1.787127
2.206698	0.231858	1.105067	2.17109	0.521726	0.185745	-0.129346	0.101809	-0.89754	-1.47409	0.096738	-0.612267	0.88251	2.489994	1.85779	2.041368
2.247122	0.468641	1.241042	2.25128	0.535764	0.250189	-0.0552510000000002	0.193226	-0.819767	-1.386633	0.133474	-0.522942	0.932741	2.65781	1.914407	2.182487
2.218194	0.300218	1.211683	2.263841	0.512996	0.155099	-0.0830610000000001	0.053254	-0.715886	-1.275045	0.236002	-0.39924	0.756182	2.381934	1.768034	1.911411
2.268959	0.413847	1.316842	2.383672	0.602905	0.295902	-0.0362979999999999	0.126271	-0.641997	-1.133441	0.316631	-0.314105	0.994987	2.695486	1.94861	2.300195
2.2175	0.292355	1.277763	2.33761	0.571872	0.222679	-0.00880900000000007	0.10852	-0.618228	-1.174423	0.301195	-0.339868	0.999082	2.735926	1.960955	2.283865
2.248627	0.360655	1.298199	2.361771	0.637654	0.289221	0.047002	0.223855	-0.774621	-1.57469	0.116075	-0.698086	0.922985	2.546916	1.926016	2.114564
2.207705	0.381707	1.286298	2.342399	0.639023	0.306984	0.037971	0.141381	-0.695726	-1.378973	0.21621	-0.54519	0.972735	2.621919	1.982996	2.186033
2.041743	0.0538729999999999	1.076397	2.158976	0.586368	0.197122	0.00978999999999997	0.12708	-0.65963	-1.23098	0.241399	-0.489045	1.11573	2.8639	2.09646	2.369221
1.999175	0.088361	1.083165	2.173606	0.593329	0.181861	0.0376969999999999	0.206888	-0.746345	-1.381483	0.186232	-0.605027	1.06681	2.751236	2.073628	2.275471
1.968271	0.05782	1.051338	2.131599	0.571674	0.156277	-0.0273949999999998	0.0779690000000001	-0.617732	-1.015541	0.377215	-0.271729	0.949681	2.529786	2.017251	2.070904
1.843949	-0.141089	0.887133	1.981007	0.483714	-0.017126	-0.101585	-0.011063	-0.720053	-1.198991	0.252833	-0.494914	0.932382	2.527205	1.993896	1.972474
1.813896	-0.179914	0.841101	1.938487	0.410814	-0.175162	-0.203335	-0.192464	-0.784738	-1.266474	0.233879	-0.549073	0.958084	2.490565	2.016701	2.020123
1.885086	-0.017725	0.86989	1.98539	0.41895	-0.132804	-0.212698	-0.13459	-1.003006	-1.715248	-0.0205660000000001	-0.984471	0.726699	2.157202	1.8464	1.627192
1.793486	-0.169935	0.700382	1.821283	0.368765	-0.129589	-0.231147	-0.12785	-1.002579	-1.671954	0.00602100000000005	-0.860509	0.883734	2.43436	1.971187	1.880229
1.823294	0.049098	0.794329	1.871798	0.310782	-0.20866	-0.314172	-0.193431	-1.066639	-1.667484	-0.0198940000000001	-0.909942	0.846733	2.415783	1.914488	1.8106
1.874145	0.088361	0.86989	1.968694	0.309885	-0.186386	-0.341749	-0.253407	-1.129744	-1.73529	-0.0775729999999999	-0.96534	0.786986	2.341903	1.891787	1.719201
1.884475	0.151744	0.871722	2.003401	0.368568	-0.0130330000000001	-0.31419	-0.132952	-1.091729	-1.645897	-0.0490809999999999	-0.818108	0.809846	2.434243	1.903427	1.764295
1.895004	0.176878	0.906828	2.017533	0.303118	-0.133383	-0.387818	-0.283763	-1.15063	-1.771692	-0.076633	-0.895471	0.93017	2.676336	2.040368	2.01775
1.904232	0.182192	0.931797	2.062874	0.425899	0.0760830000000001	-0.268045	0.03791	-1.165352	-1.76773	-0.092211	-0.885297	0.798221	2.452857	1.926046	1.765066
1.925841	0.132255	0.899701	2.091705	0.39653	0.047865	-0.30482	-0.096388	-1.142265	-1.669036	-0.0400199999999999	-0.796773	0.789391	2.454443	1.925745	1.745672
1.873417	0.100188	0.877345	2.02274	0.447654	0.181861	-0.258829	0.0700970000000001	-1.06532	-1.560505	0.0430590000000002	-0.601158	0.846733	2.58298	1.994439	1.810997
1.894163	0.085534	0.89512	2.054875	0.40367	0.101142	-0.286294	0.014034	-1.024024	-1.47797	0.0757150000000002	-0.543756	0.773075	2.508759	1.983609	1.763642
2.007072	0.136539	0.96299	2.189808	0.469421	0.233734	-0.240267	0.082576	-1.015575	-1.444572	0.10152	-0.487121	0.761957	2.527113	1.994439	1.764648
2.058716	-0.0236019999999999	0.935796	2.205281	0.629524	0.552884	-0.0829870000000001	0.345706	-1.000663	-1.452062	0.107026	-0.444212	0.968159	2.863543	2.199855	2.158123
2.203734	0.188208	1.095834	2.360855	0.550039	0.35525	-0.194202	0.071607	-0.874478	-1.221101	0.214318	-0.232837	0.910233	2.827224	2.210678	2.067601
2.25585	0.00437399999999999	1.061333	2.379939	0.630501	0.503235	-0.101634	0.254563	-0.885534	-1.362615	0.154578	-0.333461	0.922985	2.865002	2.244985	2.138878
2.359554	0.115335	1.152859	2.507436	0.762224	0.730149	0.000485999999999986	0.419888	-0.898103	-1.454945	0.115636	-0.373787	1.141267	3.185319	2.440279	2.535027
2.391292	0.137564	1.216719	2.546266	0.812729	0.767715	0.07501	0.595243	-0.978239	-1.557733	0.0476540000000001	-0.482975	1.018755	3.071238	2.359833	2.322579
2.411906	0.282515	1.347659	2.630384	0.732884	0.582538	-0.0366690000000001	0.367192	-0.887993	-1.313012	0.149693	-0.30295	0.865105	2.866815	2.267954	2.118059
2.391688	0.035589	1.22356	2.567118	0.768777	0.634208	-0.0272949999999998	0.345706	-0.811822	-1.21852	0.209085	-0.16839	1.069457	3.166589	2.451749	2.488214
2.31764	0.048899	1.152859	2.473479	0.717131	0.525282	-0.09212	0.259695	-0.785217	-1.086811	0.262006	-0.066629	0.937348	2.960183	2.359708	2.186033
2.266464	-0.110156	1.04095	2.366633	0.66594	0.459469	-0.110747	0.277965	-0.864296	-1.237588	0.153804	-0.294671	0.810418	2.769887	2.280114	2.040893
2.370015	0.130578	1.132138	2.476969	0.681039	0.487688	-0.129411	0.316219	-0.863574	-1.173118	0.170589	-0.244489	0.811063	2.657554	2.291249	1.971822
2.266127	0.082759	1.032535	2.317001	0.571484	0.328953	-0.240357	0.100844	-0.888422	-1.174423	0.188817	-0.191943	0.837498	2.732814	2.325315	1.973397
2.255203	0.157779	1.017877	2.262888	0.491954	0.170948	-0.341785	-0.00955000000000006	-1.052786	-1.452062	0.0242200000000001	-0.479269	0.835501	2.732376	2.348556	1.995079
2.245418	0.035589	0.9433	2.226444	0.456362	0.108102	-0.397017	-0.082462	-1.192281	-1.632168	-0.0716650000000001	-0.668105	0.727436	2.50882	2.245142	1.765066
